3.991989e+002,0.000000e+000
4.001631e+002,0.000000e+000
4.011274e+002,0.000000e+000
4.020916e+002,0.000000e+000
4.030559e+002,0.000000e+000
4.040201e+002,0.000000e+000
4.049844e+002,0.000000e+000
4.059486e+002,0.000000e+000
4.069129e+002,0.000000e+000
4.078771e+002,0.000000e+000
4.088414e+002,0.000000e+000
4.098056e+002,0.000000e+000
4.107699e+002,0.000000e+000
4.117341e+002,0.000000e+000
4.126984e+002,0.000000e+000
4.136626e+002,0.000000e+000
4.146269e+002,0.000000e+000
4.155911e+002,0.000000e+000
4.165554e+002,0.000000e+000
4.175196e+002,0.000000e+000
4.184839e+002,0.000000e+000
4.194481e+002,0.000000e+000
4.204124e+002,0.000000e+000
4.213766e+002,0.000000e+000
4.223409e+002,0.000000e+000
4.233051e+002,0.000000e+000
4.242693e+002,0.000000e+000
4.252336e+002,0.000000e+000
4.261978e+002,0.000000e+000
4.271621e+002,0.000000e+000
4.281263e+002,0.000000e+000
4.290906e+002,0.000000e+000
4.300548e+002,0.000000e+000
4.310191e+002,0.000000e+000
4.319833e+002,0.000000e+000
4.329476e+002,0.000000e+000
4.339118e+002,0.000000e+000
4.348761e+002,0.000000e+000
4.358403e+002,0.000000e+000
4.368046e+002,0.000000e+000
4.377688e+002,0.000000e+000
4.387331e+002,0.000000e+000
4.396973e+002,0.000000e+000
4.406616e+002,0.000000e+000
4.416258e+002,0.000000e+000
4.425901e+002,0.000000e+000
4.435543e+002,0.000000e+000
4.445186e+002,0.000000e+000
4.454828e+002,0.000000e+000
4.464471e+002,0.000000e+000
4.474113e+002,0.000000e+000
4.483756e+002,0.000000e+000
4.493398e+002,0.000000e+000
4.503041e+002,0.000000e+000
4.512683e+002,0.000000e+000
4.522326e+002,0.000000e+000
4.531968e+002,0.000000e+000
4.541611e+002,0.000000e+000
4.551253e+002,0.000000e+000
4.560896e+002,0.000000e+000
4.570538e+002,0.000000e+000
4.580181e+002,0.000000e+000
4.589823e+002,0.000000e+000
4.599466e+002,0.000000e+000
4.609108e+002,0.000000e+000
4.618751e+002,0.000000e+000
4.628393e+002,0.000000e+000
4.638036e+002,0.000000e+000
4.647678e+002,0.000000e+000
4.657321e+002,0.000000e+000
4.666963e+002,0.000000e+000
4.676606e+002,0.000000e+000
4.686248e+002,0.000000e+000
4.695891e+002,0.000000e+000
4.705533e+002,0.000000e+000
4.715175e+002,0.000000e+000
4.724818e+002,0.000000e+000
4.734460e+002,0.000000e+000
4.744103e+002,0.000000e+000
4.753745e+002,0.000000e+000
4.763388e+002,0.000000e+000
4.773030e+002,0.000000e+000
4.782673e+002,0.000000e+000
4.792315e+002,0.000000e+000
4.801958e+002,0.000000e+000
4.811600e+002,0.000000e+000
4.821243e+002,0.000000e+000
4.830885e+002,0.000000e+000
4.840528e+002,0.000000e+000
4.850170e+002,0.000000e+000
4.859813e+002,0.000000e+000
4.869455e+002,0.000000e+000
4.879098e+002,0.000000e+000
4.888740e+002,0.000000e+000
4.898383e+002,0.000000e+000
4.908025e+002,0.000000e+000
4.917668e+002,0.000000e+000
4.927310e+002,0.000000e+000
4.936953e+002,0.000000e+000
4.946595e+002,0.000000e+000
4.956238e+002,0.000000e+000
4.965880e+002,0.000000e+000
4.975523e+002,0.000000e+000
4.985165e+002,0.000000e+000
4.994808e+002,0.000000e+000
5.004450e+002,0.000000e+000
5.014093e+002,0.000000e+000
5.023735e+002,0.000000e+000
5.033378e+002,0.000000e+000
5.043020e+002,0.000000e+000
5.052663e+002,0.000000e+000
5.062305e+002,0.000000e+000
5.071948e+002,0.000000e+000
5.081590e+002,0.000000e+000
5.091233e+002,0.000000e+000
5.100875e+002,0.000000e+000
5.110518e+002,0.000000e+000
5.120160e+002,0.000000e+000
5.129802e+002,0.000000e+000
5.139445e+002,0.000000e+000
5.149088e+002,0.000000e+000
5.158730e+002,0.000000e+000
5.168372e+002,0.000000e+000
5.178015e+002,0.000000e+000
5.187657e+002,0.000000e+000
5.197300e+002,0.000000e+000
5.206942e+002,0.000000e+000
5.216585e+002,0.000000e+000
5.226227e+002,0.000000e+000
5.235870e+002,0.000000e+000
5.245512e+002,0.000000e+000
5.255155e+002,0.000000e+000
5.264797e+002,0.000000e+000
5.274440e+002,0.000000e+000
5.284082e+002,0.000000e+000
5.293725e+002,0.000000e+000
5.303367e+002,0.000000e+000
5.313010e+002,0.000000e+000
5.322652e+002,0.000000e+000
5.332295e+002,0.000000e+000
5.341937e+002,0.000000e+000
5.351580e+002,0.000000e+000
5.361222e+002,0.000000e+000
5.370865e+002,0.000000e+000
5.380507e+002,0.000000e+000
5.390150e+002,0.000000e+000
5.399792e+002,0.000000e+000
5.409435e+002,0.000000e+000
5.419077e+002,0.000000e+000
5.428719e+002,0.000000e+000
5.438362e+002,0.000000e+000
5.448005e+002,0.000000e+000
5.457647e+002,0.000000e+000
5.467289e+002,0.000000e+000
5.476932e+002,0.000000e+000
5.486575e+002,0.000000e+000
5.496217e+002,#NaN
5.505859e+002,#NaN
5.515502e+002,#NaN
5.525145e+002,#NaN
5.534787e+002,#NaN
5.544429e+002,#NaN
5.554072e+002,#NaN
5.563715e+002,#NaN
5.573357e+002,#NaN
5.582999e+002,#NaN
5.592642e+002,#NaN
5.602285e+002,#NaN
5.611927e+002,#NaN
5.621569e+002,#NaN
5.631212e+002,#NaN
5.640854e+002,#NaN
5.650497e+002,#NaN
5.660139e+002,#NaN
5.669782e+002,#NaN
5.679424e+002,#NaN
5.689067e+002,#NaN
5.698709e+002,#NaN
5.708352e+002,#NaN
5.717994e+002,#NaN
5.727637e+002,#NaN
5.737279e+002,#NaN
5.746922e+002,#NaN
5.756564e+002,#NaN
5.766207e+002,#NaN
5.775849e+002,#NaN
5.785492e+002,#NaN
5.795134e+002,#NaN
5.804777e+002,#NaN
5.814419e+002,#NaN
5.824062e+002,#NaN
5.833704e+002,#NaN
5.843347e+002,#NaN
5.852989e+002,#NaN
5.862632e+002,#NaN
5.872274e+002,#NaN
5.881917e+002,#NaN
5.891559e+002,#NaN
5.901202e+002,#NaN
5.910844e+002,#NaN
5.920486e+002,#NaN
5.930129e+002,#NaN
5.939772e+002,#NaN
5.949414e+002,#NaN
5.959056e+002,#NaN
5.968699e+002,#NaN
5.978342e+002,#NaN
5.987984e+002,#NaN
5.997626e+002,#NaN
6.007269e+002,#NaN
6.016912e+002,#NaN
6.026554e+002,#NaN
6.036196e+002,#NaN
6.045839e+002,#NaN
6.055482e+002,#NaN
6.065124e+002,#NaN
6.074766e+002,#NaN
6.084409e+002,#NaN
6.094052e+002,#NaN
6.103694e+002,#NaN
6.113336e+002,#NaN
6.122979e+002,#NaN
6.132621e+002,#NaN
6.142264e+002,#NaN
6.151906e+002,#NaN
6.161548e+002,#NaN
6.171191e+002,#NaN
6.180834e+002,#NaN
6.190476e+002,#NaN
6.200118e+002,#NaN
6.209761e+002,#NaN
6.219404e+002,#NaN
6.229046e+002,#NaN
6.238688e+002,#NaN
6.248331e+002,#NaN
6.257974e+002,#NaN
6.267616e+002,#NaN
6.277258e+002,#NaN
6.286901e+002,#NaN
6.296544e+002,#NaN
6.306186e+002,#NaN
6.315828e+002,#NaN
6.325471e+002,#NaN
6.335114e+002,#NaN
6.344756e+002,#NaN
6.354398e+002,#NaN
6.364041e+002,#NaN
6.373683e+002,#NaN
6.383326e+002,#NaN
6.392968e+002,#NaN
6.402611e+002,#NaN
6.412253e+002,#NaN
6.421896e+002,#NaN
6.431538e+002,#NaN
6.441181e+002,#NaN
6.450823e+002,#NaN
6.460466e+002,#NaN
6.470109e+002,#NaN
6.479751e+002,#NaN
6.489393e+002,#NaN
6.499036e+002,#NaN
6.508679e+002,#NaN
6.518321e+002,#NaN
6.527963e+002,#NaN
6.537606e+002,#NaN
6.547249e+002,#NaN
6.556891e+002,#NaN
6.566533e+002,#NaN
6.576176e+002,#NaN
6.585818e+002,#NaN
6.595461e+002,#NaN
6.605103e+002,#NaN
6.614745e+002,#NaN
6.624388e+002,#NaN
6.634031e+002,#NaN
6.643673e+002,#NaN
6.653315e+002,#NaN
6.662958e+002,#NaN
6.672601e+002,#NaN
6.682243e+002,#NaN
6.691885e+002,#NaN
6.701528e+002,#NaN
6.711171e+002,#NaN
6.720813e+002,#NaN
6.730455e+002,#NaN
6.740098e+002,#NaN
6.749741e+002,#NaN
6.759383e+002,#NaN
6.769025e+002,#NaN
6.778668e+002,#NaN
6.788311e+002,#NaN
6.797953e+002,#NaN
6.807595e+002,#NaN
6.817238e+002,#NaN
6.826880e+002,#NaN
6.836523e+002,#NaN
6.846165e+002,#NaN
6.855808e+002,#NaN
6.865450e+002,#NaN
6.875093e+002,#NaN
6.884735e+002,#NaN
6.894378e+002,#NaN
6.904020e+002,#NaN
6.913663e+002,#NaN
6.923305e+002,#NaN
6.932948e+002,#NaN
6.942590e+002,#NaN
6.952233e+002,#NaN
6.961875e+002,#NaN
6.971518e+002,#NaN
6.981160e+002,#NaN
6.990803e+002,#NaN
7.000445e+002,#NaN
7.010088e+002,#NaN
7.019730e+002,#NaN
7.029373e+002,#NaN
7.039015e+002,#NaN
7.048658e+002,#NaN
7.058300e+002,#NaN
7.067943e+002,#NaN
7.077585e+002,#NaN
7.087228e+002,#NaN
7.096870e+002,#NaN
7.106512e+002,#NaN
7.116155e+002,#NaN
7.125798e+002,#NaN
7.135440e+002,#NaN
7.145082e+002,#NaN
7.154725e+002,#NaN
7.164368e+002,#NaN
7.174010e+002,#NaN
7.183652e+002,#NaN
7.193295e+002,#NaN
7.202938e+002,#NaN
7.212580e+002,#NaN
7.222222e+002,#NaN
7.231865e+002,#NaN
7.241508e+002,#NaN
7.251150e+002,#NaN
7.260792e+002,#NaN
7.270435e+002,#NaN
7.280078e+002,#NaN
7.289720e+002,#NaN
7.299362e+002,#NaN
7.309005e+002,#NaN
7.318647e+002,#NaN
7.328290e+002,#NaN
7.337932e+002,#NaN
7.347575e+002,#NaN
7.357217e+002,#NaN
7.366860e+002,#NaN
7.376502e+002,#NaN
7.386145e+002,#NaN
7.395787e+002,#NaN
7.405430e+002,#NaN
7.415072e+002,#NaN
7.424715e+002,#NaN
7.434357e+002,#NaN
7.444000e+002,#NaN
7.453642e+002,#NaN
7.463285e+002,#NaN
7.472927e+002,#NaN
7.482570e+002,#NaN
7.492212e+002,#NaN
7.501855e+002,#NaN
7.511497e+002,#NaN
7.521140e+002,#NaN
7.530782e+002,#NaN
7.540425e+002,#NaN
7.550067e+002,#NaN
7.559709e+002,#NaN
7.569352e+002,#NaN
7.578995e+002,#NaN
7.588637e+002,#NaN
7.598279e+002,#NaN
7.607922e+002,#NaN
7.617565e+002,#NaN
7.627207e+002,#NaN
7.636849e+002,#NaN
7.646492e+002,#NaN
7.656135e+002,#NaN
7.665777e+002,#NaN
7.675419e+002,#NaN
7.685062e+002,#NaN
7.694705e+002,#NaN
7.704347e+002,#NaN
7.713989e+002,#NaN
7.723632e+002,#NaN
7.733275e+002,#NaN
7.742917e+002,#NaN
7.752559e+002,#NaN
7.762202e+002,#NaN
7.771844e+002,#NaN
7.781487e+002,#NaN
7.791129e+002,#NaN
7.800771e+002,#NaN
7.810414e+002,#NaN
7.820057e+002,#NaN
7.829699e+002,#NaN
7.839341e+002,#NaN
7.848984e+002,#NaN
7.858627e+002,#NaN
7.868269e+002,#NaN
7.877911e+002,#NaN
7.887554e+002,#NaN
7.897197e+002,#NaN
7.906839e+002,#NaN
7.916481e+002,#NaN
7.926124e+002,#NaN
7.935767e+002,#NaN
7.945409e+002,#NaN
7.955051e+002,#NaN
7.964694e+002,#NaN
7.974337e+002,#NaN
7.983979e+002,#NaN
7.993621e+002,#NaN
8.003264e+002,#NaN
8.012906e+002,#NaN
8.022549e+002,#NaN
8.032191e+002,#NaN
8.041834e+002,#NaN
8.051476e+002,#NaN
8.061119e+002,#NaN
8.070761e+002,#NaN
8.080404e+002,#NaN
8.090046e+002,#NaN
8.099689e+002,#NaN
8.109332e+002,#NaN
8.118974e+002,#NaN
8.128616e+002,#NaN
8.138259e+002,#NaN
8.147902e+002,#NaN
8.157544e+002,#NaN
8.167186e+002,#NaN
8.176829e+002,#NaN
8.186472e+002,#NaN
8.196114e+002,#NaN
8.205756e+002,#NaN
8.215399e+002,#NaN
8.225042e+002,#NaN
8.234684e+002,#NaN
8.244326e+002,#NaN
8.253969e+002,#NaN
8.263611e+002,#NaN
8.273254e+002,#NaN
8.282896e+002,#NaN
8.292538e+002,#NaN
8.302181e+002,#NaN
8.311824e+002,#NaN
8.321466e+002,#NaN
8.331108e+002,#NaN
8.340751e+002,#NaN
8.350394e+002,#NaN
8.360036e+002,#NaN
8.369678e+002,#NaN
8.379321e+002,#NaN
8.388964e+002,#NaN
8.398606e+002,#NaN
8.408248e+002,#NaN
8.417891e+002,#NaN
8.427534e+002,#NaN
8.437176e+002,#NaN
8.446818e+002,#NaN
8.456461e+002,#NaN
8.466104e+002,#NaN
8.475746e+002,#NaN
8.485388e+002,#NaN
8.495031e+002,#NaN
8.504673e+002,#NaN
8.514316e+002,#NaN
8.523958e+002,#NaN
8.533601e+002,#NaN
8.543243e+002,#NaN
8.552886e+002,#NaN
8.562528e+002,#NaN
8.572171e+002,#NaN
8.581813e+002,#NaN
8.591456e+002,#NaN
8.601098e+002,#NaN
8.610741e+002,#NaN
8.620383e+002,#NaN
8.630026e+002,#NaN
8.639668e+002,#NaN
8.649311e+002,#NaN
8.658953e+002,#NaN
8.668596e+002,#NaN
8.678238e+002,#NaN
8.687881e+002,#NaN
8.697523e+002,#NaN
8.707166e+002,#NaN
8.716808e+002,#NaN
8.726451e+002,#NaN
8.736093e+002,#NaN
8.745735e+002,#NaN
8.755378e+002,#NaN
8.765021e+002,#NaN
8.774663e+002,#NaN
8.784305e+002,#NaN
8.793948e+002,#NaN
8.803591e+002,#NaN
8.813233e+002,#NaN
8.822875e+002,#NaN
8.832518e+002,#NaN
8.842161e+002,#NaN
8.851803e+002,#NaN
8.861445e+002,#NaN
8.871088e+002,#NaN
8.880731e+002,#NaN
8.890373e+002,#NaN
8.900015e+002,#NaN
8.909658e+002,#NaN
8.919301e+002,#NaN
8.928943e+002,#NaN
8.938585e+002,#NaN
8.948228e+002,#NaN
8.957870e+002,#NaN
8.967513e+002,#NaN
8.977155e+002,#NaN
8.986798e+002,#NaN
8.996440e+002,#NaN
9.006083e+002,#NaN
9.015725e+002,#NaN
9.025368e+002,#NaN
9.035010e+002,#NaN
9.044653e+002,#NaN
9.054295e+002,#NaN
9.063938e+002,#NaN
9.073580e+002,#NaN
9.083223e+002,#NaN
9.092865e+002,#NaN
9.102508e+002,#NaN
9.112150e+002,#NaN
9.121793e+002,#NaN
9.131435e+002,#NaN
9.141078e+002,#NaN
9.150720e+002,#NaN
9.160363e+002,#NaN
9.170005e+002,#NaN
9.179648e+002,#NaN
9.189290e+002,#NaN
9.198932e+002,#NaN
9.208575e+002,#NaN
9.218218e+002,#NaN
9.227860e+002,#NaN
9.237502e+002,#NaN
9.247145e+002,#NaN
9.256788e+002,#NaN
9.266430e+002,#NaN
9.276072e+002,#NaN
9.285715e+002,#NaN
9.295358e+002,#NaN
9.305000e+002,#NaN
9.314642e+002,#NaN
9.324285e+002,#NaN
9.333928e+002,#NaN
9.343570e+002,#NaN
9.353212e+002,#NaN
9.362855e+002,#NaN
9.372498e+002,#NaN
9.382140e+002,#NaN
9.391782e+002,#NaN
9.401425e+002,#NaN
9.411068e+002,#NaN
9.420710e+002,#NaN
9.430352e+002,#NaN
9.439995e+002,#NaN
9.449637e+002,#NaN
9.459280e+002,#NaN
9.468922e+002,#NaN
9.478564e+002,#NaN
9.488207e+002,#NaN
9.497850e+002,#NaN
9.507492e+002,#NaN
9.517134e+002,#NaN
9.526777e+002,#NaN
9.536420e+002,#NaN
9.546062e+002,#NaN
9.555704e+002,#NaN
9.565347e+002,#NaN
9.574990e+002,#NaN
9.584632e+002,#NaN
9.594274e+002,#NaN
9.603917e+002,#NaN
9.613560e+002,#NaN
9.623202e+002,#NaN
9.632844e+002,#NaN
9.642487e+002,#NaN
9.652130e+002,#NaN
9.661772e+002,#NaN
9.671414e+002,#NaN
9.681057e+002,#NaN
9.690699e+002,#NaN
9.700342e+002,#NaN
9.709984e+002,#NaN
9.719627e+002,#NaN
9.729269e+002,#NaN
9.738912e+002,#NaN
9.748554e+002,#NaN
9.758197e+002,#NaN
9.767839e+002,#NaN
9.777482e+002,#NaN
9.787125e+002,#NaN
9.796767e+002,#NaN
9.806409e+002,#NaN
9.816052e+002,#NaN
9.825695e+002,#NaN
9.835337e+002,#NaN
9.844979e+002,#NaN
9.854622e+002,#NaN
9.864265e+002,#NaN
9.873907e+002,#NaN
9.883549e+002,#NaN
9.893192e+002,#NaN
9.902834e+002,#NaN
9.912477e+002,#NaN
9.922119e+002,#NaN
9.931761e+002,#NaN
9.941404e+002,#NaN
9.951047e+002,#NaN
9.960689e+002,#NaN
9.970331e+002,#NaN
9.979974e+002,#NaN
9.989617e+002,#NaN
9.999259e+002,#NaN
1.000890e+003,#NaN
1.001854e+003,#NaN
1.002819e+003,#NaN
1.003783e+003,#NaN
1.004747e+003,#NaN
1.005711e+003,#NaN
1.006676e+003,#NaN
1.007640e+003,#NaN
1.008604e+003,#NaN
1.009568e+003,#NaN
1.010533e+003,#NaN
1.011497e+003,#NaN
1.012461e+003,#NaN
1.013425e+003,#NaN
1.014390e+003,#NaN
1.015354e+003,#NaN
1.016318e+003,#NaN
1.017282e+003,#NaN
1.018247e+003,#NaN
1.019211e+003,#NaN
1.020175e+003,#NaN
1.021139e+003,#NaN
1.022104e+003,#NaN
1.023068e+003,#NaN
1.024032e+003,#NaN
1.024996e+003,#NaN
1.025961e+003,#NaN
1.026925e+003,#NaN
1.027889e+003,#NaN
1.028853e+003,#NaN
1.029818e+003,#NaN
1.030782e+003,#NaN
1.031746e+003,#NaN
1.032710e+003,#NaN
1.033675e+003,#NaN
1.034639e+003,#NaN
1.035603e+003,#NaN
1.036567e+003,#NaN
1.037532e+003,#NaN
1.038496e+003,#NaN
1.039460e+003,#NaN
1.040424e+003,#NaN
1.041389e+003,#NaN
1.042353e+003,#NaN
1.043317e+003,#NaN
1.044281e+003,#NaN
1.045246e+003,#NaN
1.046210e+003,#NaN
1.047174e+003,#NaN
1.048138e+003,#NaN
1.049103e+003,#NaN
1.050067e+003,#NaN
1.051031e+003,#NaN
1.051995e+003,#NaN
1.052960e+003,#NaN
1.053924e+003,#NaN
1.054888e+003,#NaN
1.055852e+003,#NaN
1.056817e+003,#NaN
1.057781e+003,#NaN
1.058745e+003,#NaN
1.059709e+003,#NaN
1.060674e+003,#NaN
1.061638e+003,#NaN
1.062602e+003,#NaN
1.063566e+003,#NaN
1.064531e+003,#NaN
1.065495e+003,#NaN
1.066459e+003,#NaN
1.067423e+003,#NaN
1.068388e+003,#NaN
1.069352e+003,#NaN
1.070316e+003,#NaN
1.071280e+003,#NaN
1.072245e+003,#NaN
1.073209e+003,#NaN
1.074173e+003,#NaN
1.075137e+003,#NaN
1.076102e+003,#NaN
1.077066e+003,#NaN
1.078030e+003,#NaN
1.078994e+003,#NaN
1.079959e+003,#NaN
1.080923e+003,#NaN
1.081887e+003,#NaN
1.082851e+003,#NaN
1.083816e+003,#NaN
1.084780e+003,#NaN
1.085744e+003,#NaN
1.086708e+003,#NaN
1.087673e+003,#NaN
1.088637e+003,#NaN
1.089601e+003,#NaN
1.090565e+003,#NaN
1.091530e+003,#NaN
1.092494e+003,#NaN
1.093458e+003,#NaN
1.094422e+003,#NaN
1.095387e+003,#NaN
1.096351e+003,#NaN
1.097315e+003,#NaN
1.098279e+003,#NaN
1.099244e+003,#NaN
1.100208e+003,#NaN
1.101172e+003,#NaN
1.102136e+003,#NaN
1.103101e+003,#NaN
1.104065e+003,#NaN
1.105029e+003,#NaN
1.105993e+003,#NaN
1.106958e+003,#NaN
1.107922e+003,#NaN
1.108886e+003,#NaN
1.109850e+003,#NaN
1.110815e+003,#NaN
1.111779e+003,#NaN
1.112743e+003,#NaN
1.113707e+003,#NaN
1.114672e+003,#NaN
1.115636e+003,#NaN
1.116600e+003,#NaN
1.117564e+003,#NaN
1.118529e+003,#NaN
1.119493e+003,#NaN
1.120457e+003,#NaN
1.121421e+003,#NaN
1.122385e+003,#NaN
1.123350e+003,#NaN
1.124314e+003,#NaN
1.125278e+003,#NaN
1.126243e+003,#NaN
1.127207e+003,#NaN
1.128171e+003,#NaN
1.129135e+003,#NaN
1.130099e+003,#NaN
1.131064e+003,#NaN
1.132028e+003,#NaN
1.132992e+003,#NaN
1.133957e+003,#NaN
1.134921e+003,#NaN
1.135885e+003,#NaN
1.136849e+003,#NaN
1.137813e+003,#NaN
1.138778e+003,#NaN
1.139742e+003,#NaN
1.140706e+003,#NaN
1.141671e+003,#NaN
1.142635e+003,#NaN
1.143599e+003,#NaN
1.144563e+003,#NaN
1.145527e+003,#NaN
1.146492e+003,#NaN
1.147456e+003,#NaN
1.148420e+003,#NaN
1.149385e+003,#NaN
1.150349e+003,#NaN
1.151313e+003,#NaN
1.152277e+003,#NaN
1.153241e+003,#NaN
1.154206e+003,#NaN
1.155170e+003,#NaN
1.156134e+003,#NaN
1.157099e+003,#NaN
1.158063e+003,#NaN
1.159027e+003,#NaN
1.159991e+003,#NaN
1.160955e+003,#NaN
1.161920e+003,#NaN
1.162884e+003,#NaN
1.163848e+003,#NaN
1.164813e+003,#NaN
1.165777e+003,#NaN
1.166741e+003,#NaN
1.167705e+003,#NaN
1.168669e+003,#NaN
1.169634e+003,#NaN
1.170598e+003,#NaN
1.171562e+003,#NaN
1.172526e+003,#NaN
1.173491e+003,#NaN
1.174455e+003,#NaN
1.175419e+003,#NaN
1.176383e+003,#NaN
1.177348e+003,#NaN
1.178312e+003,#NaN
1.179276e+003,#NaN
1.180240e+003,#NaN
1.181205e+003,#NaN
1.182169e+003,#NaN
1.183133e+003,#NaN
1.184097e+003,#NaN
1.185062e+003,#NaN
1.186026e+003,#NaN
1.186990e+003,#NaN
1.187954e+003,#NaN
1.188919e+003,#NaN
1.189883e+003,#NaN
1.190847e+003,#NaN
1.191811e+003,#NaN
1.192776e+003,#NaN
1.193740e+003,#NaN
1.194704e+003,#NaN
1.195668e+003,#NaN
1.196633e+003,#NaN
1.197597e+003,#NaN
1.198561e+003,#NaN
1.199525e+003,#NaN
1.200490e+003,#NaN
1.201454e+003,#NaN
1.202418e+003,#NaN
1.203382e+003,#NaN
1.204347e+003,#NaN
1.205311e+003,#NaN
1.206275e+003,#NaN
1.207239e+003,#NaN
1.208204e+003,#NaN
1.209168e+003,#NaN
1.210132e+003,#NaN
1.211096e+003,#NaN
1.212061e+003,#NaN
1.213025e+003,#NaN
1.213989e+003,#NaN
1.214953e+003,#NaN
1.215918e+003,#NaN
1.216882e+003,#NaN
1.217846e+003,#NaN
1.218810e+003,#NaN
1.219775e+003,#NaN
1.220739e+003,#NaN
1.221703e+003,#NaN
1.222667e+003,#NaN
1.223632e+003,#NaN
1.224596e+003,#NaN
1.225560e+003,#NaN
1.226524e+003,#NaN
1.227489e+003,#NaN
1.228453e+003,#NaN
1.229417e+003,#NaN
1.230381e+003,#NaN
1.231346e+003,#NaN
1.232310e+003,#NaN
1.233274e+003,#NaN
1.234238e+003,#NaN
1.235203e+003,#NaN
1.236167e+003,#NaN
1.237131e+003,#NaN
1.238095e+003,#NaN
1.239060e+003,#NaN
1.240024e+003,#NaN
1.240988e+003,#NaN
1.241952e+003,#NaN
1.242917e+003,#NaN
1.243881e+003,#NaN
1.244845e+003,#NaN
1.245809e+003,#NaN
1.246774e+003,#NaN
1.247738e+003,#NaN
1.248702e+003,#NaN
1.249666e+003,#NaN
1.250631e+003,#NaN
1.251595e+003,#NaN
1.252559e+003,#NaN
1.253523e+003,#NaN
1.254488e+003,#NaN
1.255452e+003,#NaN
1.256416e+003,#NaN
1.257380e+003,#NaN
1.258345e+003,#NaN
1.259309e+003,#NaN
1.260273e+003,#NaN
1.261237e+003,#NaN
1.262202e+003,#NaN
1.263166e+003,#NaN
1.264130e+003,#NaN
1.265094e+003,#NaN
1.266059e+003,#NaN
1.267023e+003,#NaN
1.267987e+003,#NaN
1.268951e+003,#NaN
1.269916e+003,#NaN
1.270880e+003,#NaN
1.271844e+003,#NaN
1.272808e+003,#NaN
1.273773e+003,#NaN
1.274737e+003,#NaN
1.275701e+003,#NaN
1.276665e+003,#NaN
1.277630e+003,#NaN
1.278594e+003,#NaN
1.279558e+003,#NaN
1.280522e+003,#NaN
1.281487e+003,#NaN
1.282451e+003,#NaN
1.283415e+003,#NaN
1.284379e+003,#NaN
1.285344e+003,#NaN
1.286308e+003,#NaN
1.287272e+003,#NaN
1.288236e+003,#NaN
1.289201e+003,#NaN
1.290165e+003,#NaN
1.291129e+003,#NaN
1.292093e+003,#NaN
1.293057e+003,#NaN
1.294022e+003,#NaN
1.294986e+003,#NaN
1.295950e+003,#NaN
1.296915e+003,#NaN
1.297879e+003,#NaN
1.298843e+003,#NaN
1.299807e+003,#NaN
1.300771e+003,#NaN
1.301736e+003,#NaN
1.302700e+003,#NaN
1.303664e+003,#NaN
1.304629e+003,#NaN
1.305593e+003,#NaN
1.306557e+003,#NaN
1.307521e+003,#NaN
1.308486e+003,#NaN
1.309450e+003,#NaN
1.310414e+003,#NaN
1.311378e+003,#NaN
1.312343e+003,#NaN
1.313307e+003,#NaN
1.314271e+003,#NaN
1.315235e+003,#NaN
1.316200e+003,#NaN
1.317164e+003,#NaN
1.318128e+003,#NaN
1.319092e+003,#NaN
1.320057e+003,#NaN
1.321021e+003,#NaN
1.321985e+003,#NaN
1.322949e+003,#NaN
1.323914e+003,#NaN
1.324878e+003,#NaN
1.325842e+003,#NaN
1.326806e+003,#NaN
1.327771e+003,#NaN
1.328735e+003,#NaN
1.329699e+003,#NaN
1.330663e+003,#NaN
1.331628e+003,#NaN
1.332592e+003,#NaN
1.333556e+003,#NaN
1.334520e+003,#NaN
1.335484e+003,#NaN
1.336449e+003,#NaN
1.337413e+003,#NaN
1.338377e+003,#NaN
1.339342e+003,#NaN
1.340306e+003,#NaN
1.341270e+003,#NaN
1.342234e+003,#NaN
1.343198e+003,#NaN
1.344163e+003,#NaN
1.345127e+003,#NaN
1.346091e+003,#NaN
1.347056e+003,#NaN
1.348020e+003,#NaN
1.348984e+003,#NaN
1.349948e+003,#NaN
1.350912e+003,#NaN
1.351877e+003,#NaN
1.352841e+003,#NaN
1.353805e+003,#NaN
1.354770e+003,#NaN
1.355734e+003,#NaN
1.356698e+003,#NaN
1.357662e+003,#NaN
1.358626e+003,#NaN
1.359591e+003,#NaN
1.360555e+003,#NaN
1.361519e+003,#NaN
1.362484e+003,#NaN
1.363448e+003,#NaN
1.364412e+003,#NaN
1.365376e+003,#NaN
1.366340e+003,#NaN
1.367305e+003,#NaN
1.368269e+003,#NaN
1.369233e+003,#NaN
1.370198e+003,#NaN
1.371162e+003,#NaN
1.372126e+003,#NaN
1.373090e+003,#NaN
1.374054e+003,#NaN
1.375019e+003,#NaN
1.375983e+003,#NaN
1.376947e+003,#NaN
1.377911e+003,#NaN
1.378876e+003,#NaN
1.379840e+003,#NaN
1.380804e+003,#NaN
1.381768e+003,#NaN
1.382733e+003,#NaN
1.383697e+003,#NaN
1.384661e+003,#NaN
1.385625e+003,#NaN
1.386590e+003,#NaN
1.387554e+003,#NaN
1.388518e+003,#NaN
1.389482e+003,#NaN
1.390447e+003,#NaN
1.391411e+003,#NaN
1.392375e+003,#NaN
1.393339e+003,#NaN
1.394304e+003,#NaN
1.395268e+003,#NaN
1.396232e+003,#NaN
1.397196e+003,#NaN
1.398161e+003,#NaN
1.399125e+003,#NaN
1.400089e+003,#NaN
1.401053e+003,#NaN
1.402018e+003,#NaN
1.402982e+003,#NaN
1.403946e+003,#NaN
1.404910e+003,#NaN
1.405875e+003,#NaN
1.406839e+003,#NaN
1.407803e+003,#NaN
1.408767e+003,#NaN
1.409732e+003,#NaN
1.410696e+003,#NaN
1.411660e+003,#NaN
1.412624e+003,#NaN
1.413589e+003,#NaN
1.414553e+003,#NaN
1.415517e+003,#NaN
1.416481e+003,#NaN
1.417446e+003,#NaN
1.418410e+003,#NaN
1.419374e+003,#NaN
1.420338e+003,#NaN
1.421303e+003,#NaN
1.422267e+003,#NaN
1.423231e+003,#NaN
1.424195e+003,#NaN
1.425160e+003,#NaN
1.426124e+003,#NaN
1.427088e+003,#NaN
1.428052e+003,#NaN
1.429017e+003,#NaN
1.429981e+003,#NaN
1.430945e+003,#NaN
1.431909e+003,#NaN
1.432874e+003,#NaN
1.433838e+003,#NaN
1.434802e+003,#NaN
1.435766e+003,#NaN
1.436731e+003,#NaN
1.437695e+003,#NaN
1.438659e+003,#NaN
1.439623e+003,#NaN
1.440588e+003,#NaN
1.441552e+003,#NaN
1.442516e+003,#NaN
1.443480e+003,#NaN
1.444445e+003,#NaN
1.445409e+003,#NaN
1.446373e+003,#NaN
1.447337e+003,#NaN
1.448302e+003,#NaN
1.449266e+003,#NaN
1.450230e+003,#NaN
1.451194e+003,#NaN
1.452159e+003,#NaN
1.453123e+003,#NaN
1.454087e+003,#NaN
1.455051e+003,#NaN
1.456016e+003,#NaN
1.456980e+003,#NaN
1.457944e+003,#NaN
1.458908e+003,#NaN
1.459873e+003,#NaN
1.460837e+003,#NaN
1.461801e+003,#NaN
1.462765e+003,#NaN
1.463730e+003,#NaN
1.464694e+003,#NaN
1.465658e+003,#NaN
1.466622e+003,#NaN
1.467587e+003,#NaN
1.468551e+003,#NaN
1.469515e+003,#NaN
1.470479e+003,#NaN
1.471444e+003,#NaN
1.472408e+003,#NaN
1.473372e+003,#NaN
1.474336e+003,#NaN
1.475301e+003,#NaN
1.476265e+003,#NaN
1.477229e+003,#NaN
1.478193e+003,#NaN
1.479158e+003,#NaN
1.480122e+003,#NaN
1.481086e+003,#NaN
1.482050e+003,#NaN
1.483015e+003,#NaN
1.483979e+003,#NaN
1.484943e+003,#NaN
1.485907e+003,#NaN
1.486872e+003,#NaN
1.487836e+003,#NaN
1.488800e+003,#NaN
1.489764e+003,#NaN
1.490729e+003,#NaN
1.491693e+003,#NaN
1.492657e+003,#NaN
1.493621e+003,#NaN
1.494586e+003,#NaN
1.495550e+003,#NaN
1.496514e+003,#NaN
1.497478e+003,#NaN
1.498443e+003,#NaN
1.499407e+003,#NaN
1.500371e+003,#NaN
1.501335e+003,#NaN
1.502300e+003,#NaN
1.503264e+003,#NaN
1.504228e+003,#NaN
1.505192e+003,#NaN
1.506156e+003,#NaN
1.507121e+003,#NaN
1.508085e+003,#NaN
1.509049e+003,#NaN
1.510014e+003,#NaN
1.510978e+003,#NaN
1.511942e+003,#NaN
1.512906e+003,#NaN
1.513870e+003,#NaN
1.514835e+003,#NaN
1.515799e+003,#NaN
1.516763e+003,#NaN
1.517728e+003,#NaN
1.518692e+003,#NaN
1.519656e+003,#NaN
1.520620e+003,#NaN
1.521584e+003,#NaN
1.522549e+003,#NaN
1.523513e+003,#NaN
1.524477e+003,#NaN
1.525442e+003,#NaN
1.526406e+003,#NaN
1.527370e+003,#NaN
1.528334e+003,#NaN
1.529298e+003,#NaN
1.530263e+003,#NaN
1.531227e+003,#NaN
1.532191e+003,#NaN
1.533156e+003,#NaN
1.534120e+003,#NaN
1.535084e+003,#NaN
1.536048e+003,#NaN
1.537012e+003,#NaN
1.537977e+003,#NaN
1.538941e+003,#NaN
1.539905e+003,#NaN
1.540870e+003,#NaN
1.541834e+003,#NaN
1.542798e+003,#NaN
1.543762e+003,#NaN
1.544726e+003,#NaN
1.545691e+003,#NaN
1.546655e+003,#NaN
1.547619e+003,#NaN
1.548583e+003,#NaN
1.549548e+003,#NaN
1.550512e+003,#NaN
1.551476e+003,#NaN
1.552441e+003,#NaN
1.553405e+003,#NaN
1.554369e+003,#NaN
1.555333e+003,#NaN
1.556297e+003,#NaN
1.557262e+003,#NaN
1.558226e+003,#NaN
1.559190e+003,#NaN
1.560155e+003,#NaN
1.561119e+003,#NaN
1.562083e+003,#NaN
1.563047e+003,#NaN
1.564011e+003,#NaN
1.564976e+003,#NaN
1.565940e+003,#NaN
1.566904e+003,#NaN
1.567869e+003,#NaN
1.568833e+003,#NaN
1.569797e+003,#NaN
1.570761e+003,#NaN
1.571725e+003,#NaN
1.572690e+003,#NaN
1.573654e+003,#NaN
1.574618e+003,#NaN
1.575583e+003,#NaN
1.576547e+003,#NaN
1.577511e+003,#NaN
1.578475e+003,#NaN
1.579439e+003,#NaN
1.580404e+003,#NaN
1.581368e+003,#NaN
1.582332e+003,#NaN
1.583297e+003,#NaN
1.584261e+003,#NaN
1.585225e+003,#NaN
1.586189e+003,#NaN
1.587153e+003,#NaN
1.588118e+003,#NaN
1.589082e+003,#NaN
1.590046e+003,#NaN
1.591010e+003,#NaN
1.591975e+003,#NaN
1.592939e+003,#NaN
1.593903e+003,#NaN
1.594867e+003,#NaN
1.595832e+003,#NaN
1.596796e+003,#NaN
1.597760e+003,#NaN
1.598724e+003,#NaN
1.599689e+003,#NaN
1.600653e+003,#NaN
1.601617e+003,#NaN
1.602581e+003,#NaN
1.603546e+003,#NaN
1.604510e+003,#NaN
1.605474e+003,#NaN
1.606438e+003,#NaN
1.607403e+003,#NaN
1.608367e+003,#NaN
1.609331e+003,#NaN
1.610295e+003,#NaN
1.611260e+003,#NaN
1.612224e+003,#NaN
1.613188e+003,#NaN
1.614152e+003,#NaN
1.615117e+003,#NaN
1.616081e+003,#NaN
1.617045e+003,#NaN
1.618009e+003,#NaN
1.618974e+003,#NaN
1.619938e+003,#NaN
1.620902e+003,#NaN
1.621866e+003,#NaN
1.622831e+003,#NaN
1.623795e+003,#NaN
1.624759e+003,#NaN
1.625723e+003,#NaN
1.626688e+003,#NaN
1.627652e+003,#NaN
1.628616e+003,#NaN
1.629580e+003,#NaN
1.630545e+003,#NaN
1.631509e+003,#NaN
1.632473e+003,#NaN
1.633437e+003,#NaN
1.634402e+003,#NaN
1.635366e+003,#NaN
1.636330e+003,#NaN
1.637294e+003,#NaN
1.638259e+003,#NaN
1.639223e+003,#NaN
1.640187e+003,#NaN
1.641151e+003,#NaN
1.642116e+003,#NaN
1.643080e+003,#NaN
1.644044e+003,#NaN
1.645008e+003,#NaN
1.645973e+003,#NaN
1.646937e+003,#NaN
1.647901e+003,#NaN
1.648865e+003,#NaN
1.649830e+003,#NaN
1.650794e+003,#NaN
1.651758e+003,#NaN
1.652722e+003,#NaN
1.653687e+003,#NaN
1.654651e+003,#NaN
1.655615e+003,#NaN
1.656579e+003,#NaN
1.657544e+003,#NaN
1.658508e+003,#NaN
1.659472e+003,#NaN
1.660436e+003,#NaN
1.661401e+003,#NaN
1.662365e+003,#NaN
1.663329e+003,#NaN
1.664293e+003,#NaN
1.665258e+003,#NaN
1.666222e+003,#NaN
1.667186e+003,#NaN
1.668150e+003,#NaN
1.669115e+003,#NaN
1.670079e+003,#NaN
1.671043e+003,#NaN
1.672007e+003,#NaN
1.672972e+003,#NaN
1.673936e+003,#NaN
1.674900e+003,#NaN
1.675864e+003,#NaN
1.676829e+003,#NaN
1.677793e+003,#NaN
1.678757e+003,#NaN
1.679721e+003,#NaN
1.680686e+003,#NaN
1.681650e+003,#NaN
1.682614e+003,#NaN
1.683578e+003,#NaN
1.684543e+003,#NaN
1.685507e+003,#NaN
1.686471e+003,#NaN
1.687435e+003,#NaN
1.688400e+003,#NaN
1.689364e+003,#NaN
1.690328e+003,#NaN
1.691292e+003,#NaN
1.692257e+003,#NaN
1.693221e+003,#NaN
1.694185e+003,#NaN
1.695149e+003,#NaN
1.696114e+003,#NaN
1.697078e+003,#NaN
1.698042e+003,#NaN
1.699006e+003,#NaN
1.699971e+003,#NaN
1.700935e+003,#NaN
1.701899e+003,#NaN
1.702863e+003,#NaN
1.703828e+003,#NaN
1.704792e+003,#NaN
1.705756e+003,#NaN
1.706720e+003,#NaN
1.707685e+003,#NaN
1.708649e+003,#NaN
1.709613e+003,#NaN
1.710577e+003,#NaN
1.711542e+003,#NaN
1.712506e+003,#NaN
1.713470e+003,#NaN
1.714434e+003,#NaN
1.715399e+003,#NaN
1.716363e+003,#NaN
1.717327e+003,#NaN
1.718291e+003,#NaN
1.719255e+003,#NaN
1.720220e+003,#NaN
1.721184e+003,#NaN
1.722148e+003,#NaN
1.723113e+003,#NaN
1.724077e+003,#NaN
1.725041e+003,#NaN
1.726005e+003,#NaN
1.726969e+003,#NaN
1.727934e+003,#NaN
1.728898e+003,#NaN
1.729862e+003,#NaN
1.730827e+003,#NaN
1.731791e+003,#NaN
1.732755e+003,#NaN
1.733719e+003,#NaN
1.734683e+003,#NaN
1.735648e+003,#NaN
1.736612e+003,#NaN
1.737576e+003,#NaN
1.738541e+003,#NaN
1.739505e+003,#NaN
1.740469e+003,#NaN
1.741433e+003,#NaN
1.742397e+003,#NaN
1.743362e+003,#NaN
1.744326e+003,#NaN
1.745290e+003,#NaN
1.746255e+003,#NaN
1.747219e+003,#NaN
1.748183e+003,#NaN
1.749147e+003,#NaN
1.750111e+003,#NaN
1.751076e+003,#NaN
1.752040e+003,#NaN
1.753004e+003,#NaN
1.753969e+003,#NaN
1.754933e+003,#NaN
1.755897e+003,#NaN
1.756861e+003,#NaN
1.757825e+003,#NaN
1.758790e+003,#NaN
1.759754e+003,#NaN
1.760718e+003,#NaN
1.761682e+003,#NaN
1.762647e+003,#NaN
1.763611e+003,#NaN
1.764575e+003,#NaN
1.765539e+003,#NaN
1.766504e+003,#NaN
1.767468e+003,#NaN
1.768432e+003,#NaN
1.769396e+003,#NaN
1.770361e+003,#NaN
1.771325e+003,#NaN
1.772289e+003,#NaN
1.773253e+003,#NaN
1.774218e+003,#NaN
1.775182e+003,#NaN
1.776146e+003,#NaN
1.777110e+003,#NaN
1.778075e+003,#NaN
1.779039e+003,#NaN
1.780003e+003,#NaN
1.780967e+003,#NaN
1.781932e+003,#NaN
1.782896e+003,#NaN
1.783860e+003,#NaN
1.784824e+003,#NaN
1.785789e+003,#NaN
1.786753e+003,#NaN
1.787717e+003,#NaN
1.788681e+003,#NaN
1.789646e+003,#NaN
1.790610e+003,#NaN
1.791574e+003,#NaN
1.792538e+003,#NaN
1.793503e+003,#NaN
1.794467e+003,#NaN
1.795431e+003,#NaN
1.796395e+003,#NaN
1.797360e+003,#NaN
1.798324e+003,#NaN
1.799288e+003,#NaN
1.800252e+003,#NaN
1.801217e+003,#NaN
1.802181e+003,#NaN
1.803145e+003,#NaN
1.804109e+003,#NaN
1.805074e+003,#NaN
1.806038e+003,#NaN
1.807002e+003,#NaN
1.807966e+003,#NaN
1.808931e+003,#NaN
1.809895e+003,#NaN
1.810859e+003,#NaN
1.811823e+003,#NaN
1.812788e+003,#NaN
1.813752e+003,#NaN
1.814716e+003,#NaN
1.815680e+003,#NaN
1.816645e+003,#NaN
1.817609e+003,#NaN
1.818573e+003,#NaN
1.819537e+003,#NaN
1.820502e+003,#NaN
1.821466e+003,#NaN
1.822430e+003,#NaN
1.823394e+003,#NaN
1.824359e+003,#NaN
1.825323e+003,#NaN
1.826287e+003,#NaN
1.827251e+003,#NaN
1.828216e+003,#NaN
1.829180e+003,#NaN
1.830144e+003,#NaN
1.831108e+003,#NaN
1.832073e+003,#NaN
1.833037e+003,#NaN
1.834001e+003,#NaN
1.834965e+003,#NaN
1.835930e+003,#NaN
1.836894e+003,#NaN
1.837858e+003,#NaN
1.838822e+003,#NaN
1.839787e+003,#NaN
1.840751e+003,#NaN
1.841715e+003,#NaN
1.842679e+003,#NaN
1.843644e+003,#NaN
1.844608e+003,#NaN
1.845572e+003,#NaN
1.846536e+003,#NaN
1.847501e+003,#NaN
1.848465e+003,#NaN
1.849429e+003,#NaN
1.850393e+003,#NaN
1.851358e+003,#NaN
1.852322e+003,#NaN
1.853286e+003,#NaN
1.854250e+003,#NaN
1.855215e+003,#NaN
1.856179e+003,#NaN
1.857143e+003,#NaN
1.858107e+003,#NaN
1.859072e+003,#NaN
1.860036e+003,#NaN
1.861000e+003,#NaN
1.861964e+003,#NaN
1.862929e+003,#NaN
1.863893e+003,#NaN
1.864857e+003,#NaN
1.865821e+003,#NaN
1.866786e+003,#NaN
1.867750e+003,#NaN
1.868714e+003,#NaN
1.869678e+003,#NaN
1.870643e+003,#NaN
1.871607e+003,#NaN
1.872571e+003,#NaN
1.873535e+003,#NaN
1.874500e+003,#NaN
1.875464e+003,#NaN
1.876428e+003,#NaN
1.877392e+003,#NaN
1.878357e+003,#NaN
1.879321e+003,#NaN
1.880285e+003,#NaN
1.881249e+003,#NaN
1.882214e+003,#NaN
1.883178e+003,#NaN
1.884142e+003,#NaN
1.885106e+003,#NaN
1.886071e+003,#NaN
1.887035e+003,#NaN
1.887999e+003,#NaN
1.888963e+003,#NaN
1.889928e+003,#NaN
1.890892e+003,#NaN
1.891856e+003,#NaN
1.892820e+003,#NaN
1.893785e+003,#NaN
1.894749e+003,#NaN
1.895713e+003,#NaN
1.896677e+003,#NaN
1.897642e+003,#NaN
1.898606e+003,#NaN
1.899570e+003,#NaN
1.900534e+003,#NaN
1.901499e+003,#NaN
1.902463e+003,#NaN
1.903427e+003,#NaN
1.904391e+003,#NaN
1.905356e+003,#NaN
1.906320e+003,#NaN
1.907284e+003,#NaN
1.908248e+003,#NaN
1.909213e+003,#NaN
1.910177e+003,#NaN
1.911141e+003,#NaN
1.912105e+003,#NaN
1.913070e+003,#NaN
1.914034e+003,#NaN
1.914998e+003,#NaN
1.915962e+003,#NaN
1.916927e+003,#NaN
1.917891e+003,#NaN
1.918855e+003,#NaN
1.919819e+003,#NaN
1.920784e+003,#NaN
1.921748e+003,#NaN
1.922712e+003,#NaN
1.923676e+003,#NaN
1.924641e+003,#NaN
1.925605e+003,#NaN
1.926569e+003,#NaN
1.927533e+003,#NaN
1.928498e+003,#NaN
1.929462e+003,#NaN
1.930426e+003,#NaN
1.931390e+003,#NaN
1.932354e+003,#NaN
1.933319e+003,#NaN
1.934283e+003,#NaN
1.935247e+003,#NaN
1.936212e+003,#NaN
1.937176e+003,#NaN
1.938140e+003,#NaN
1.939104e+003,#NaN
1.940068e+003,#NaN
1.941033e+003,#NaN
1.941997e+003,#NaN
1.942961e+003,#NaN
1.943926e+003,#NaN
1.944890e+003,#NaN
1.945854e+003,#NaN
1.946818e+003,#NaN
1.947782e+003,#NaN
1.948747e+003,#NaN
1.949711e+003,#NaN
1.950675e+003,#NaN
1.951640e+003,#NaN
1.952604e+003,#NaN
1.953568e+003,#NaN
1.954532e+003,#NaN
1.955496e+003,#NaN
1.956461e+003,#NaN
1.957425e+003,#NaN
1.958389e+003,#NaN
1.959354e+003,#NaN
1.960318e+003,#NaN
1.961282e+003,#NaN
1.962246e+003,#NaN
1.963210e+003,#NaN
1.964175e+003,#NaN
1.965139e+003,#NaN
1.966103e+003,#NaN
1.967068e+003,#NaN
1.968032e+003,#NaN
1.968996e+003,#NaN
1.969960e+003,#NaN
1.970924e+003,#NaN
1.971889e+003,#NaN
1.972853e+003,#NaN
1.973817e+003,#NaN
1.974781e+003,#NaN
1.975746e+003,#NaN
1.976710e+003,#NaN
1.977674e+003,#NaN
1.978638e+003,#NaN
1.979603e+003,#NaN
1.980567e+003,#NaN
1.981531e+003,#NaN
1.982495e+003,#NaN
1.983460e+003,#NaN
1.984424e+003,#NaN
1.985388e+003,#NaN
1.986352e+003,#NaN
1.987317e+003,#NaN
1.988281e+003,#NaN
1.989245e+003,#NaN
1.990209e+003,#NaN
1.991174e+003,#NaN
1.992138e+003,#NaN
1.993102e+003,#NaN
1.994066e+003,#NaN
1.995031e+003,#NaN
1.995995e+003,#NaN
1.996959e+003,#NaN
1.997923e+003,#NaN
1.998888e+003,#NaN
1.999852e+003,#NaN
2.000816e+003,#NaN
2.001780e+003,#NaN
2.002745e+003,#NaN
2.003709e+003,#NaN
2.004673e+003,#NaN
2.005637e+003,#NaN
2.006602e+003,#NaN
2.007566e+003,#NaN
2.008530e+003,#NaN
2.009494e+003,#NaN
2.010459e+003,#NaN
2.011423e+003,#NaN
2.012387e+003,#NaN
2.013351e+003,#NaN
2.014316e+003,#NaN
2.015280e+003,#NaN
2.016244e+003,#NaN
2.017208e+003,#NaN
2.018173e+003,#NaN
2.019137e+003,#NaN
2.020101e+003,#NaN
2.021065e+003,#NaN
2.022030e+003,#NaN
2.022994e+003,#NaN
2.023958e+003,#NaN
2.024922e+003,#NaN
2.025887e+003,#NaN
2.026851e+003,#NaN
2.027815e+003,#NaN
2.028779e+003,#NaN
2.029744e+003,#NaN
2.030708e+003,#NaN
2.031672e+003,#NaN
2.032636e+003,#NaN
2.033601e+003,#NaN
2.034565e+003,#NaN
2.035529e+003,#NaN
2.036493e+003,#NaN
2.037458e+003,#NaN
2.038422e+003,#NaN
2.039386e+003,#NaN
2.040350e+003,#NaN
2.041315e+003,#NaN
2.042279e+003,#NaN
2.043243e+003,#NaN
2.044207e+003,#NaN
2.045172e+003,#NaN
2.046136e+003,#NaN
2.047100e+003,#NaN
2.048064e+003,#NaN
2.049029e+003,#NaN
2.049993e+003,#NaN
2.050957e+003,#NaN
2.051921e+003,#NaN
2.052886e+003,#NaN
2.053850e+003,#NaN
2.054814e+003,#NaN
2.055778e+003,#NaN
2.056743e+003,#NaN
2.057707e+003,#NaN
2.058671e+003,#NaN
2.059635e+003,#NaN
2.060600e+003,#NaN
2.061564e+003,#NaN
2.062528e+003,#NaN
2.063492e+003,#NaN
2.064457e+003,#NaN
2.065421e+003,#NaN
2.066385e+003,#NaN
2.067349e+003,#NaN
2.068314e+003,#NaN
2.069278e+003,#NaN
2.070242e+003,#NaN
2.071206e+003,#NaN
2.072171e+003,#NaN
2.073135e+003,#NaN
2.074099e+003,#NaN
2.075063e+003,#NaN
2.076028e+003,#NaN
2.076992e+003,#NaN
2.077956e+003,#NaN
2.078920e+003,#NaN
2.079885e+003,#NaN
2.080849e+003,#NaN
2.081813e+003,#NaN
2.082777e+003,#NaN
2.083742e+003,#NaN
2.084706e+003,#NaN
2.085670e+003,#NaN
2.086634e+003,#NaN
2.087599e+003,#NaN
2.088563e+003,#NaN
2.089527e+003,#NaN
2.090491e+003,#NaN
2.091456e+003,#NaN
2.092420e+003,#NaN
2.093384e+003,#NaN
2.094348e+003,#NaN
2.095313e+003,#NaN
2.096277e+003,#NaN
2.097241e+003,#NaN
2.098205e+003,#NaN
2.099170e+003,#NaN
2.100134e+003,#NaN
2.101098e+003,#NaN
2.102062e+003,#NaN
2.103027e+003,#NaN
2.103991e+003,#NaN
2.104955e+003,#NaN
2.105919e+003,#NaN
2.106884e+003,#NaN
2.107848e+003,#NaN
2.108812e+003,#NaN
2.109776e+003,#NaN
2.110740e+003,#NaN
2.111705e+003,#NaN
2.112669e+003,#NaN
2.113633e+003,#NaN
2.114598e+003,#NaN
2.115562e+003,#NaN
2.116526e+003,#NaN
2.117490e+003,#NaN
2.118455e+003,#NaN
2.119419e+003,#NaN
2.120383e+003,#NaN
2.121347e+003,#NaN
2.122312e+003,#NaN
2.123276e+003,#NaN
2.124240e+003,#NaN
2.125204e+003,#NaN
2.126168e+003,#NaN
2.127133e+003,#NaN
2.128097e+003,#NaN
2.129061e+003,#NaN
2.130026e+003,#NaN
2.130990e+003,#NaN
2.131954e+003,#NaN
2.132918e+003,#NaN
2.133883e+003,#NaN
2.134847e+003,#NaN
2.135811e+003,#NaN
2.136775e+003,#NaN
2.137740e+003,#NaN
2.138704e+003,#NaN
2.139668e+003,#NaN
2.140632e+003,#NaN
2.141596e+003,#NaN
2.142561e+003,#NaN
2.143525e+003,#NaN
2.144489e+003,#NaN
2.145454e+003,#NaN
2.146418e+003,#NaN
2.147382e+003,#NaN
2.148346e+003,#NaN
2.149311e+003,#NaN
2.150275e+003,#NaN
2.151239e+003,#NaN
2.152203e+003,#NaN
2.153167e+003,#NaN
2.154132e+003,#NaN
2.155096e+003,#NaN
2.156060e+003,#NaN
2.157024e+003,#NaN
2.157989e+003,#NaN
2.158953e+003,#NaN
2.159917e+003,#NaN
2.160882e+003,#NaN
2.161846e+003,#NaN
2.162810e+003,#NaN
2.163774e+003,#NaN
2.164739e+003,#NaN
2.165703e+003,#NaN
2.166667e+003,#NaN
2.167631e+003,#NaN
2.168595e+003,#NaN
2.169560e+003,#NaN
2.170524e+003,#NaN
2.171488e+003,#NaN
2.172452e+003,#NaN
2.173417e+003,#NaN
2.174381e+003,#NaN
2.175345e+003,#NaN
2.176310e+003,#NaN
2.177274e+003,#NaN
2.178238e+003,#NaN
2.179202e+003,#NaN
2.180167e+003,#NaN
2.181131e+003,#NaN
2.182095e+003,#NaN
2.183059e+003,#NaN
2.184023e+003,#NaN
2.184988e+003,#NaN
2.185952e+003,#NaN
2.186916e+003,#NaN
2.187880e+003,#NaN
2.188845e+003,#NaN
2.189809e+003,#NaN
2.190773e+003,#NaN
2.191738e+003,#NaN
2.192702e+003,#NaN
2.193666e+003,#NaN
2.194630e+003,#NaN
2.195594e+003,#NaN
2.196559e+003,#NaN
2.197523e+003,#NaN
2.198487e+003,#NaN
2.199451e+003,#NaN
2.200416e+003,#NaN
2.201380e+003,#NaN
2.202344e+003,#NaN
2.203308e+003,#NaN
2.204273e+003,#NaN
2.205237e+003,#NaN
2.206201e+003,#NaN
2.207166e+003,#NaN
2.208130e+003,#NaN
2.209094e+003,#NaN
2.210058e+003,#NaN
2.211022e+003,#NaN
2.211987e+003,#NaN
2.212951e+003,#NaN
2.213915e+003,#NaN
2.214879e+003,#NaN
2.215844e+003,#NaN
2.216808e+003,#NaN
2.217772e+003,#NaN
2.218736e+003,#NaN
2.219701e+003,#NaN
2.220665e+003,#NaN
2.221629e+003,#NaN
2.222594e+003,#NaN
2.223558e+003,#NaN
2.224522e+003,#NaN
2.225486e+003,#NaN
2.226450e+003,#NaN
2.227415e+003,#NaN
2.228379e+003,#NaN
2.229343e+003,#NaN
2.230307e+003,#NaN
2.231272e+003,#NaN
2.232236e+003,#NaN
2.233200e+003,#NaN
2.234164e+003,#NaN
2.235129e+003,#NaN
2.236093e+003,#NaN
2.237057e+003,#NaN
2.238021e+003,#NaN
2.238986e+003,#NaN
2.239950e+003,#NaN
2.240914e+003,#NaN
2.241878e+003,#NaN
2.242843e+003,#NaN
2.243807e+003,#NaN
2.244771e+003,#NaN
2.245735e+003,#NaN
2.246700e+003,#NaN
2.247664e+003,#NaN
2.248628e+003,#NaN
2.249592e+003,#NaN
2.250557e+003,#NaN
2.251521e+003,#NaN
2.252485e+003,#NaN
2.253449e+003,#NaN
2.254414e+003,#NaN
2.255378e+003,#NaN
2.256342e+003,#NaN
2.257306e+003,#NaN
2.258271e+003,#NaN
2.259235e+003,#NaN
2.260199e+003,#NaN
2.261163e+003,#NaN
2.262128e+003,#NaN
2.263092e+003,#NaN
2.264056e+003,#NaN
2.265020e+003,#NaN
2.265985e+003,#NaN
2.266949e+003,#NaN
2.267913e+003,#NaN
2.268877e+003,#NaN
2.269842e+003,#NaN
2.270806e+003,#NaN
2.271770e+003,#NaN
2.272734e+003,#NaN
2.273699e+003,#NaN
2.274663e+003,#NaN
2.275627e+003,#NaN
2.276591e+003,#NaN
2.277556e+003,#NaN
2.278520e+003,#NaN
2.279484e+003,#NaN
2.280448e+003,#NaN
2.281413e+003,#NaN
2.282377e+003,#NaN
2.283341e+003,#NaN
2.284305e+003,#NaN
2.285270e+003,#NaN
2.286234e+003,#NaN
2.287198e+003,#NaN
2.288162e+003,#NaN
2.289127e+003,#NaN
2.290091e+003,#NaN
2.291055e+003,#NaN
2.292019e+003,#NaN
2.292984e+003,#NaN
2.293948e+003,#NaN
2.294912e+003,#NaN
2.295876e+003,#NaN
2.296841e+003,#NaN
2.297805e+003,#NaN
2.298769e+003,#NaN
2.299733e+003,#NaN
2.300698e+003,#NaN
2.301662e+003,#NaN
2.302626e+003,#NaN
2.303590e+003,#NaN
2.304555e+003,#NaN
2.305519e+003,#NaN
2.306483e+003,#NaN
2.307447e+003,#NaN
2.308412e+003,#NaN
2.309376e+003,#NaN
2.310340e+003,#NaN
2.311304e+003,#NaN
2.312269e+003,#NaN
2.313233e+003,#NaN
2.314197e+003,#NaN
2.315161e+003,#NaN
2.316125e+003,#NaN
2.317090e+003,#NaN
2.318054e+003,#NaN
2.319018e+003,#NaN
2.319983e+003,#NaN
2.320947e+003,#NaN
2.321911e+003,#NaN
2.322875e+003,#NaN
2.323840e+003,#NaN
2.324804e+003,#NaN
2.325768e+003,#NaN
2.326732e+003,#NaN
2.327697e+003,#NaN
2.328661e+003,#NaN
2.329625e+003,#NaN
2.330589e+003,#NaN
2.331553e+003,#NaN
2.332518e+003,#NaN
2.333482e+003,#NaN
2.334446e+003,#NaN
2.335411e+003,#NaN
2.336375e+003,#NaN
2.337339e+003,#NaN
2.338303e+003,#NaN
2.339268e+003,#NaN
2.340232e+003,#NaN
2.341196e+003,#NaN
2.342160e+003,#NaN
2.343125e+003,#NaN
2.344089e+003,#NaN
2.345053e+003,#NaN
2.346017e+003,#NaN
2.346981e+003,#NaN
2.347946e+003,#NaN
2.348910e+003,#NaN
2.349874e+003,#NaN
2.350839e+003,#NaN
2.351803e+003,#NaN
2.352767e+003,#NaN
2.353731e+003,#NaN
2.354696e+003,#NaN
2.355660e+003,#NaN
2.356624e+003,#NaN
2.357588e+003,#NaN
2.358552e+003,#NaN
2.359517e+003,#NaN
2.360481e+003,#NaN
2.361445e+003,#NaN
2.362409e+003,#NaN
2.363374e+003,#NaN
2.364338e+003,#NaN
2.365302e+003,#NaN
2.366267e+003,#NaN
2.367231e+003,#NaN
2.368195e+003,#NaN
2.369159e+003,#NaN
2.370124e+003,#NaN
2.371088e+003,#NaN
2.372052e+003,#NaN
2.373016e+003,#NaN
2.373980e+003,#NaN
2.374945e+003,#NaN
2.375909e+003,#NaN
2.376873e+003,#NaN
2.377837e+003,#NaN
2.378802e+003,#NaN
2.379766e+003,#NaN
2.380730e+003,#NaN
2.381695e+003,#NaN
2.382659e+003,#NaN
2.383623e+003,#NaN
2.384587e+003,#NaN
2.385552e+003,#NaN
2.386516e+003,#NaN
2.387480e+003,#NaN
2.388444e+003,#NaN
2.389408e+003,#NaN
2.390373e+003,#NaN
2.391337e+003,#NaN
2.392301e+003,#NaN
2.393265e+003,#NaN
2.394230e+003,#NaN
2.395194e+003,#NaN
2.396158e+003,#NaN
2.397123e+003,#NaN
2.398087e+003,#NaN
2.399051e+003,#NaN
2.400015e+003,#NaN
2.400979e+003,#NaN
2.401944e+003,#NaN
2.402908e+003,#NaN
2.403872e+003,#NaN
2.404836e+003,#NaN
2.405801e+003,#NaN
2.406765e+003,#NaN
2.407729e+003,#NaN
2.408693e+003,#NaN
2.409658e+003,#NaN
2.410622e+003,#NaN
2.411586e+003,#NaN
2.412551e+003,#NaN
2.413515e+003,#NaN
2.414479e+003,#NaN
2.415443e+003,#NaN
2.416407e+003,#NaN
2.417372e+003,#NaN
2.418336e+003,#NaN
2.419300e+003,#NaN
2.420264e+003,#NaN
2.421229e+003,#NaN
2.422193e+003,#NaN
2.423157e+003,#NaN
2.424121e+003,#NaN
2.425086e+003,#NaN
2.426050e+003,#NaN
2.427014e+003,#NaN
2.427979e+003,#NaN
2.428943e+003,#NaN
2.429907e+003,#NaN
2.430871e+003,#NaN
2.431835e+003,#NaN
2.432800e+003,#NaN
2.433764e+003,#NaN
2.434728e+003,#NaN
2.435692e+003,#NaN
2.436657e+003,#NaN
2.437621e+003,#NaN
2.438585e+003,#NaN
2.439549e+003,#NaN
2.440514e+003,#NaN
2.441478e+003,#NaN
2.442442e+003,#NaN
2.443406e+003,#NaN
2.444371e+003,#NaN
2.445335e+003,#NaN
2.446299e+003,#NaN
2.447263e+003,#NaN
2.448228e+003,#NaN
2.449192e+003,#NaN
2.450156e+003,#NaN
2.451120e+003,#NaN
2.452085e+003,#NaN
2.453049e+003,#NaN
2.454013e+003,#NaN
2.454977e+003,#NaN
2.455942e+003,#NaN
2.456906e+003,#NaN
2.457870e+003,#NaN
2.458834e+003,#NaN
2.459799e+003,#NaN
2.460763e+003,#NaN
2.461727e+003,#NaN
2.462691e+003,#NaN
2.463656e+003,#NaN
2.464620e+003,#NaN
2.465584e+003,#NaN
2.466548e+003,#NaN
2.467513e+003,#NaN
2.468477e+003,#NaN
2.469441e+003,#NaN
2.470405e+003,#NaN
2.471370e+003,#NaN
2.472334e+003,#NaN
2.473298e+003,#NaN
2.474262e+003,#NaN
2.475227e+003,#NaN
2.476191e+003,#NaN
2.477155e+003,#NaN
2.478119e+003,#NaN
2.479084e+003,#NaN
2.480048e+003,#NaN
2.481012e+003,#NaN
2.481976e+003,#NaN
2.482941e+003,#NaN
2.483905e+003,#NaN
2.484869e+003,#NaN
2.485833e+003,#NaN
2.486798e+003,#NaN
2.487762e+003,#NaN
2.488726e+003,#NaN
2.489690e+003,#NaN
2.490655e+003,#NaN
2.491619e+003,#NaN
2.492583e+003,#NaN
2.493547e+003,#NaN
2.494512e+003,#NaN
2.495476e+003,#NaN
2.496440e+003,#NaN
2.497404e+003,#NaN
2.498369e+003,#NaN
2.499333e+003,#NaN
2.500297e+003,#NaN
2.501261e+003,#NaN
2.502226e+003,#NaN
2.503190e+003,#NaN
2.504154e+003,#NaN
2.505118e+003,#NaN
2.506083e+003,#NaN
2.507047e+003,#NaN
2.508011e+003,#NaN
2.508975e+003,#NaN
2.509940e+003,#NaN
2.510904e+003,#NaN
2.511868e+003,#NaN
2.512832e+003,#NaN
2.513797e+003,#NaN
2.514761e+003,#NaN
2.515725e+003,#NaN
2.516689e+003,#NaN
2.517654e+003,#NaN
2.518618e+003,#NaN
2.519582e+003,#NaN
2.520546e+003,#NaN
2.521510e+003,#NaN
2.522475e+003,#NaN
2.523439e+003,#NaN
2.524403e+003,#NaN
2.525368e+003,#NaN
2.526332e+003,#NaN
2.527296e+003,#NaN
2.528260e+003,#NaN
2.529225e+003,#NaN
2.530189e+003,#NaN
2.531153e+003,#NaN
2.532117e+003,#NaN
2.533082e+003,#NaN
2.534046e+003,#NaN
2.535010e+003,#NaN
2.535974e+003,#NaN
2.536938e+003,#NaN
2.537903e+003,#NaN
2.538867e+003,#NaN
2.539831e+003,#NaN
2.540796e+003,#NaN
2.541760e+003,#NaN
2.542724e+003,#NaN
2.543688e+003,#NaN
2.544653e+003,#NaN
2.545617e+003,#NaN
2.546581e+003,#NaN
2.547545e+003,#NaN
2.548510e+003,#NaN
2.549474e+003,#NaN
2.550438e+003,#NaN
2.551402e+003,#NaN
2.552366e+003,#NaN
2.553331e+003,#NaN
2.554295e+003,#NaN
2.555259e+003,#NaN
2.556224e+003,#NaN
2.557188e+003,#NaN
2.558152e+003,#NaN
2.559116e+003,#NaN
2.560081e+003,#NaN
2.561045e+003,#NaN
2.562009e+003,#NaN
2.562973e+003,#NaN
2.563938e+003,#NaN
2.564902e+003,#NaN
2.565866e+003,#NaN
2.566830e+003,#NaN
2.567794e+003,#NaN
2.568759e+003,#NaN
2.569723e+003,#NaN
2.570687e+003,#NaN
2.571652e+003,#NaN
2.572616e+003,#NaN
2.573580e+003,#NaN
2.574544e+003,#NaN
2.575509e+003,#NaN
2.576473e+003,#NaN
2.577437e+003,#NaN
2.578401e+003,#NaN
2.579365e+003,#NaN
2.580330e+003,#NaN
2.581294e+003,#NaN
2.582258e+003,#NaN
2.583222e+003,#NaN
2.584187e+003,#NaN
2.585151e+003,#NaN
2.586115e+003,#NaN
2.587080e+003,#NaN
2.588044e+003,#NaN
2.589008e+003,#NaN
2.589972e+003,#NaN
2.590937e+003,#NaN
2.591901e+003,#NaN
2.592865e+003,#NaN
2.593829e+003,#NaN
2.594793e+003,#NaN
2.595758e+003,#NaN
2.596722e+003,#NaN
2.597686e+003,#NaN
2.598650e+003,#NaN
2.599615e+003,#NaN
2.600579e+003,#NaN
2.601543e+003,#NaN
2.602508e+003,#NaN
2.603472e+003,#NaN
2.604436e+003,#NaN
2.605400e+003,#NaN
2.606365e+003,#NaN
2.607329e+003,#NaN
2.608293e+003,#NaN
2.609257e+003,#NaN
2.610221e+003,#NaN
2.611186e+003,#NaN
2.612150e+003,#NaN
2.613114e+003,#NaN
2.614078e+003,#NaN
2.615043e+003,#NaN
2.616007e+003,#NaN
2.616971e+003,#NaN
2.617936e+003,#NaN
2.618900e+003,#NaN
2.619864e+003,#NaN
2.620828e+003,#NaN
2.621792e+003,#NaN
2.622757e+003,#NaN
2.623721e+003,#NaN
2.624685e+003,#NaN
2.625649e+003,#NaN
2.626614e+003,#NaN
2.627578e+003,#NaN
2.628542e+003,#NaN
2.629506e+003,#NaN
2.630471e+003,#NaN
2.631435e+003,#NaN
2.632399e+003,#NaN
2.633364e+003,#NaN
2.634328e+003,#NaN
2.635292e+003,#NaN
2.636256e+003,#NaN
2.637220e+003,#NaN
2.638185e+003,#NaN
2.639149e+003,#NaN
2.640113e+003,#NaN
2.641077e+003,#NaN
2.642042e+003,#NaN
2.643006e+003,#NaN
2.643970e+003,#NaN
2.644934e+003,#NaN
2.645899e+003,#NaN
2.646863e+003,#NaN
2.647827e+003,#NaN
2.648792e+003,#NaN
2.649756e+003,#NaN
2.650720e+003,#NaN
2.651684e+003,#NaN
2.652648e+003,#NaN
2.653613e+003,#NaN
2.654577e+003,#NaN
2.655541e+003,#NaN
2.656505e+003,#NaN
2.657470e+003,#NaN
2.658434e+003,#NaN
2.659398e+003,#NaN
2.660362e+003,#NaN
2.661327e+003,#NaN
2.662291e+003,#NaN
2.663255e+003,#NaN
2.664219e+003,#NaN
2.665184e+003,#NaN
2.666148e+003,#NaN
2.667112e+003,#NaN
2.668076e+003,#NaN
2.669041e+003,#NaN
2.670005e+003,#NaN
2.670969e+003,#NaN
2.671933e+003,#NaN
2.672898e+003,#NaN
2.673862e+003,#NaN
2.674826e+003,#NaN
2.675790e+003,#NaN
2.676755e+003,#NaN
2.677719e+003,#NaN
2.678683e+003,#NaN
2.679647e+003,#NaN
2.680612e+003,#NaN
2.681576e+003,#NaN
2.682540e+003,#NaN
2.683504e+003,#NaN
2.684469e+003,#NaN
2.685433e+003,#NaN
2.686397e+003,#NaN
2.687361e+003,#NaN
2.688326e+003,#NaN
2.689290e+003,#NaN
2.690254e+003,#NaN
2.691218e+003,#NaN
2.692183e+003,#NaN
2.693147e+003,#NaN
2.694111e+003,#NaN
2.695075e+003,#NaN
2.696040e+003,#NaN
2.697004e+003,#NaN
2.697968e+003,#NaN
2.698932e+003,#NaN
2.699896e+003,#NaN
2.700861e+003,#NaN
2.701825e+003,#NaN
2.702789e+003,#NaN
2.703754e+003,#NaN
2.704718e+003,#NaN
2.705682e+003,#NaN
2.706646e+003,#NaN
2.707611e+003,#NaN
2.708575e+003,#NaN
2.709539e+003,#NaN
2.710503e+003,#NaN
2.711468e+003,#NaN
2.712432e+003,#NaN
2.713396e+003,#NaN
2.714360e+003,#NaN
2.715325e+003,#NaN
2.716289e+003,#NaN
2.717253e+003,#NaN
2.718217e+003,#NaN
2.719182e+003,#NaN
2.720146e+003,#NaN
2.721110e+003,#NaN
2.722074e+003,#NaN
2.723039e+003,#NaN
2.724003e+003,#NaN
2.724967e+003,#NaN
2.725931e+003,#NaN
2.726896e+003,#NaN
2.727860e+003,#NaN
2.728824e+003,#NaN
2.729788e+003,#NaN
2.730753e+003,#NaN
2.731717e+003,#NaN
2.732681e+003,#NaN
2.733645e+003,#NaN
2.734610e+003,#NaN
2.735574e+003,#NaN
2.736538e+003,#NaN
2.737502e+003,#NaN
2.738467e+003,#NaN
2.739431e+003,#NaN
2.740395e+003,#NaN
2.741359e+003,#NaN
2.742323e+003,#NaN
2.743288e+003,#NaN
2.744252e+003,#NaN
2.745216e+003,#NaN
2.746181e+003,#NaN
2.747145e+003,#NaN
2.748109e+003,#NaN
2.749073e+003,#NaN
2.750038e+003,#NaN
2.751002e+003,#NaN
2.751966e+003,#NaN
2.752930e+003,#NaN
2.753895e+003,#NaN
2.754859e+003,#NaN
2.755823e+003,#NaN
2.756787e+003,#NaN
2.757751e+003,#NaN
2.758716e+003,#NaN
2.759680e+003,#NaN
2.760644e+003,#NaN
2.761609e+003,#NaN
2.762573e+003,#NaN
2.763537e+003,#NaN
2.764501e+003,#NaN
2.765466e+003,#NaN
2.766430e+003,#NaN
2.767394e+003,#NaN
2.768358e+003,#NaN
2.769323e+003,#NaN
2.770287e+003,#NaN
2.771251e+003,#NaN
2.772215e+003,#NaN
2.773179e+003,#NaN
2.774144e+003,#NaN
2.775108e+003,#NaN
2.776072e+003,#NaN
2.777037e+003,#NaN
2.778001e+003,#NaN
2.778965e+003,#NaN
2.779929e+003,#NaN
2.780894e+003,#NaN
2.781858e+003,#NaN
2.782822e+003,#NaN
2.783786e+003,#NaN
2.784750e+003,#NaN
2.785715e+003,#NaN
2.786679e+003,#NaN
2.787643e+003,#NaN
2.788607e+003,#NaN
2.789572e+003,#NaN
2.790536e+003,#NaN
2.791500e+003,#NaN
2.792465e+003,#NaN
2.793429e+003,#NaN
2.794393e+003,#NaN
2.795357e+003,#NaN
2.796322e+003,#NaN
2.797286e+003,#NaN
2.798250e+003,#NaN
2.799214e+003,#NaN
2.800178e+003,#NaN
2.801143e+003,#NaN
2.802107e+003,#NaN
2.803071e+003,#NaN
2.804035e+003,#NaN
2.805000e+003,#NaN
2.805964e+003,#NaN
2.806928e+003,#NaN
2.807893e+003,#NaN
2.808857e+003,#NaN
2.809821e+003,#NaN
2.810785e+003,#NaN
2.811750e+003,#NaN
2.812714e+003,#NaN
2.813678e+003,#NaN
2.814642e+003,#NaN
2.815606e+003,#NaN
2.816571e+003,#NaN
2.817535e+003,#NaN
2.818499e+003,#NaN
2.819463e+003,#NaN
2.820428e+003,#NaN
2.821392e+003,#NaN
2.822356e+003,#NaN
2.823321e+003,#NaN
2.824285e+003,#NaN
2.825249e+003,#NaN
2.826213e+003,#NaN
2.827177e+003,#NaN
2.828142e+003,#NaN
2.829106e+003,#NaN
2.830070e+003,#NaN
2.831034e+003,#NaN
2.831999e+003,#NaN
2.832963e+003,#NaN
2.833927e+003,#NaN
2.834891e+003,#NaN
2.835856e+003,#NaN
2.836820e+003,#NaN
2.837784e+003,#NaN
2.838749e+003,#NaN
2.839713e+003,#NaN
2.840677e+003,#NaN
2.841641e+003,#NaN
2.842605e+003,#NaN
2.843570e+003,#NaN
2.844534e+003,#NaN
2.845498e+003,#NaN
2.846462e+003,#NaN
2.847427e+003,#NaN
2.848391e+003,#NaN
2.849355e+003,#NaN
2.850319e+003,#NaN
2.851284e+003,#NaN
2.852248e+003,#NaN
2.853212e+003,#NaN
2.854177e+003,#NaN
2.855141e+003,#NaN
2.856105e+003,#NaN
2.857069e+003,#NaN
2.858033e+003,#NaN
2.858998e+003,#NaN
2.859962e+003,#NaN
2.860926e+003,#NaN
2.861890e+003,#NaN
2.862855e+003,#NaN
2.863819e+003,#NaN
2.864783e+003,#NaN
2.865747e+003,#NaN
2.866712e+003,#NaN
2.867676e+003,#NaN
2.868640e+003,#NaN
2.869604e+003,#NaN
2.870569e+003,#NaN
2.871533e+003,#NaN
2.872497e+003,#NaN
2.873461e+003,#NaN
2.874426e+003,#NaN
2.875390e+003,#NaN
2.876354e+003,#NaN
2.877318e+003,#NaN
2.878283e+003,#NaN
2.879247e+003,#NaN
2.880211e+003,#NaN
2.881175e+003,#NaN
2.882140e+003,#NaN
2.883104e+003,#NaN
2.884068e+003,#NaN
2.885032e+003,#NaN
2.885997e+003,#NaN
2.886961e+003,#NaN
2.887925e+003,#NaN
2.888889e+003,#NaN
2.889854e+003,#NaN
2.890818e+003,#NaN
2.891782e+003,#NaN
2.892746e+003,#NaN
2.893711e+003,#NaN
2.894675e+003,#NaN
2.895639e+003,#NaN
2.896603e+003,#NaN
2.897568e+003,#NaN
2.898532e+003,#NaN
2.899496e+003,#NaN
2.900460e+003,#NaN
2.901425e+003,#NaN
2.902389e+003,#NaN
2.903353e+003,#NaN
2.904317e+003,#NaN
2.905281e+003,#NaN
2.906246e+003,#NaN
2.907210e+003,#NaN
2.908174e+003,#NaN
2.909139e+003,#NaN
2.910103e+003,#NaN
2.911067e+003,#NaN
2.912031e+003,#NaN
2.912996e+003,#NaN
2.913960e+003,#NaN
2.914924e+003,#NaN
2.915888e+003,#NaN
2.916853e+003,#NaN
2.917817e+003,#NaN
2.918781e+003,#NaN
2.919745e+003,#NaN
2.920709e+003,#NaN
2.921674e+003,#NaN
2.922638e+003,#NaN
2.923602e+003,#NaN
2.924567e+003,#NaN
2.925531e+003,#NaN
2.926495e+003,#NaN
2.927459e+003,#NaN
2.928424e+003,#NaN
2.929388e+003,#NaN
2.930352e+003,#NaN
2.931316e+003,#NaN
2.932281e+003,#NaN
2.933245e+003,#NaN
2.934209e+003,#NaN
2.935173e+003,#NaN
2.936137e+003,#NaN
2.937102e+003,#NaN
2.938066e+003,#NaN
2.939030e+003,#NaN
2.939995e+003,#NaN
2.940959e+003,#NaN
2.941923e+003,#NaN
2.942887e+003,#NaN
2.943852e+003,#NaN
2.944816e+003,#NaN
2.945780e+003,#NaN
2.946744e+003,#NaN
2.947708e+003,#NaN
2.948673e+003,#NaN
2.949637e+003,#NaN
2.950601e+003,#NaN
2.951566e+003,#NaN
2.952530e+003,#NaN
2.953494e+003,#NaN
2.954458e+003,#NaN
2.955423e+003,#NaN
2.956387e+003,#NaN
2.957351e+003,#NaN
2.958315e+003,#NaN
2.959280e+003,#NaN
2.960244e+003,#NaN
2.961208e+003,#NaN
2.962172e+003,#NaN
2.963136e+003,#NaN
2.964101e+003,#NaN
2.965065e+003,#NaN
2.966029e+003,#NaN
2.966994e+003,#NaN
2.967958e+003,#NaN
2.968922e+003,#NaN
2.969886e+003,#NaN
2.970851e+003,#NaN
2.971815e+003,#NaN
2.972779e+003,#NaN
2.973743e+003,#NaN
2.974708e+003,#NaN
2.975672e+003,#NaN
2.976636e+003,#NaN
2.977600e+003,#NaN
2.978564e+003,#NaN
2.979529e+003,#NaN
2.980493e+003,#NaN
2.981457e+003,#NaN
2.982422e+003,#NaN
2.983386e+003,#NaN
2.984350e+003,#NaN
2.985314e+003,#NaN
2.986279e+003,#NaN
2.987243e+003,#NaN
2.988207e+003,#NaN
2.989171e+003,#NaN
2.990135e+003,#NaN
2.991100e+003,#NaN
2.992064e+003,#NaN
2.993028e+003,#NaN
2.993992e+003,#NaN
2.994957e+003,#NaN
2.995921e+003,#NaN
2.996885e+003,#NaN
2.997850e+003,#NaN
2.998814e+003,#NaN
2.999778e+003,#NaN
3.000742e+003,#NaN
3.001707e+003,#NaN
3.002671e+003,#NaN
3.003635e+003,#NaN
3.004599e+003,#NaN
3.005563e+003,#NaN
3.006528e+003,#NaN
3.007492e+003,#NaN
3.008456e+003,#NaN
3.009420e+003,#NaN
3.010385e+003,#NaN
3.011349e+003,#NaN
3.012313e+003,#NaN
3.013278e+003,#NaN
3.014242e+003,#NaN
3.015206e+003,#NaN
3.016170e+003,#NaN
3.017135e+003,#NaN
3.018099e+003,#NaN
3.019063e+003,#NaN
3.020027e+003,#NaN
3.020991e+003,#NaN
3.021956e+003,#NaN
3.022920e+003,#NaN
3.023884e+003,#NaN
3.024848e+003,#NaN
3.025813e+003,#NaN
3.026777e+003,#NaN
3.027741e+003,#NaN
3.028706e+003,#NaN
3.029670e+003,#NaN
3.030634e+003,#NaN
3.031598e+003,#NaN
3.032563e+003,#NaN
3.033527e+003,#NaN
3.034491e+003,#NaN
3.035455e+003,#NaN
3.036419e+003,#NaN
3.037384e+003,#NaN
3.038348e+003,#NaN
3.039312e+003,#NaN
3.040276e+003,#NaN
3.041241e+003,#NaN
3.042205e+003,#NaN
3.043169e+003,#NaN
3.044134e+003,#NaN
3.045098e+003,#NaN
3.046062e+003,#NaN
3.047026e+003,#NaN
3.047990e+003,#NaN
3.048955e+003,#NaN
3.049919e+003,#NaN
3.050883e+003,#NaN
3.051847e+003,#NaN
3.052812e+003,#NaN
3.053776e+003,#NaN
3.054740e+003,#NaN
3.055704e+003,#NaN
3.056669e+003,#NaN
3.057633e+003,#NaN
3.058597e+003,#NaN
3.059562e+003,#NaN
3.060526e+003,#NaN
3.061490e+003,#NaN
3.062454e+003,#NaN
3.063418e+003,#NaN
3.064383e+003,#NaN
3.065347e+003,#NaN
3.066311e+003,#NaN
3.067275e+003,#NaN
3.068240e+003,#NaN
3.069204e+003,#NaN
3.070168e+003,#NaN
3.071132e+003,#NaN
3.072097e+003,#NaN
3.073061e+003,#NaN
3.074025e+003,#NaN
3.074990e+003,#NaN
3.075954e+003,#NaN
3.076918e+003,#NaN
3.077882e+003,#NaN
3.078846e+003,#NaN
3.079811e+003,#NaN
3.080775e+003,#NaN
3.081739e+003,#NaN
3.082703e+003,#NaN
3.083668e+003,#NaN
3.084632e+003,#NaN
3.085596e+003,#NaN
3.086560e+003,#NaN
3.087525e+003,#NaN
3.088489e+003,#NaN
3.089453e+003,#NaN
3.090417e+003,#NaN
3.091382e+003,#NaN
3.092346e+003,#NaN
3.093310e+003,#NaN
3.094274e+003,#NaN
3.095239e+003,#NaN
3.096203e+003,#NaN
3.097167e+003,#NaN
3.098131e+003,#NaN
3.099096e+003,#NaN
3.100060e+003,#NaN
3.101024e+003,#NaN
3.101988e+003,#NaN
3.102953e+003,#NaN
3.103917e+003,#NaN
3.104881e+003,#NaN
3.105845e+003,#NaN
3.106810e+003,#NaN
3.107774e+003,#NaN
3.108738e+003,#NaN
3.109702e+003,#NaN
3.110667e+003,#NaN
3.111631e+003,#NaN
3.112595e+003,#NaN
3.113559e+003,#NaN
3.114524e+003,#NaN
3.115488e+003,#NaN
3.116452e+003,#NaN
3.117416e+003,#NaN
3.118381e+003,#NaN
3.119345e+003,#NaN
3.120309e+003,#NaN
3.121273e+003,#NaN
3.122238e+003,#NaN
3.123202e+003,#NaN
3.124166e+003,#NaN
3.125130e+003,#NaN
3.126094e+003,#NaN
3.127059e+003,#NaN
3.128023e+003,#NaN
3.128987e+003,#NaN
3.129952e+003,#NaN
3.130916e+003,#NaN
3.131880e+003,#NaN
3.132844e+003,#NaN
3.133809e+003,#NaN
3.134773e+003,#NaN
3.135737e+003,#NaN
3.136701e+003,#NaN
3.137666e+003,#NaN
3.138630e+003,#NaN
3.139594e+003,#NaN
3.140558e+003,#NaN
3.141522e+003,#NaN
3.142487e+003,#NaN
3.143451e+003,#NaN
3.144415e+003,#NaN
3.145380e+003,#NaN
3.146344e+003,#NaN
3.147308e+003,#NaN
3.148272e+003,#NaN
3.149237e+003,#NaN
3.150201e+003,#NaN
3.151165e+003,#NaN
3.152129e+003,#NaN
3.153094e+003,#NaN
3.154058e+003,#NaN
3.155022e+003,#NaN
3.155986e+003,#NaN
3.156950e+003,#NaN
3.157915e+003,#NaN
3.158879e+003,#NaN
3.159843e+003,#NaN
3.160808e+003,#NaN
3.161772e+003,#NaN
3.162736e+003,#NaN
3.163700e+003,#NaN
3.164665e+003,#NaN
3.165629e+003,#NaN
3.166593e+003,#NaN
3.167557e+003,#NaN
3.168521e+003,#NaN
3.169486e+003,#NaN
3.170450e+003,#NaN
3.171414e+003,#NaN
3.172378e+003,#NaN
3.173343e+003,#NaN
3.174307e+003,#NaN
3.175271e+003,#NaN
3.176236e+003,#NaN
3.177200e+003,#NaN
3.178164e+003,#NaN
3.179128e+003,#NaN
3.180093e+003,#NaN
3.181057e+003,#NaN
3.182021e+003,#NaN
3.182985e+003,#NaN
3.183949e+003,#NaN
3.184914e+003,#NaN
3.185878e+003,#NaN
3.186842e+003,#NaN
3.187806e+003,#NaN
3.188771e+003,#NaN
3.189735e+003,#NaN
3.190699e+003,#NaN
3.191664e+003,#NaN
3.192628e+003,#NaN
3.193592e+003,#NaN
3.194556e+003,#NaN
3.195521e+003,#NaN
3.196485e+003,#NaN
3.197449e+003,#NaN
3.198413e+003,#NaN
3.199377e+003,#NaN
3.200342e+003,#NaN
3.201306e+003,#NaN
3.202270e+003,#NaN
3.203235e+003,#NaN
3.204199e+003,#NaN
3.205163e+003,#NaN
3.206127e+003,#NaN
3.207092e+003,#NaN
3.208056e+003,#NaN
3.209020e+003,#NaN
3.209984e+003,#NaN
3.210948e+003,#NaN
3.211913e+003,#NaN
3.212877e+003,#NaN
3.213841e+003,#NaN
3.214805e+003,#NaN
3.215770e+003,#NaN
3.216734e+003,#NaN
3.217698e+003,#NaN
3.218663e+003,#NaN
3.219627e+003,#NaN
3.220591e+003,#NaN
3.221555e+003,#NaN
3.222520e+003,#NaN
3.223484e+003,#NaN
3.224448e+003,#NaN
3.225412e+003,#NaN
3.226376e+003,#NaN
3.227341e+003,#NaN
3.228305e+003,#NaN
3.229269e+003,#NaN
3.230233e+003,#NaN
3.231198e+003,#NaN
3.232162e+003,#NaN
3.233126e+003,#NaN
3.234091e+003,#NaN
3.235055e+003,#NaN
3.236019e+003,#NaN
3.236983e+003,#NaN
3.237948e+003,#NaN
3.238912e+003,#NaN
3.239876e+003,#NaN
3.240840e+003,#NaN
3.241804e+003,#NaN
3.242769e+003,#NaN
3.243733e+003,#NaN
3.244697e+003,#NaN
3.245661e+003,#NaN
3.246626e+003,#NaN
3.247590e+003,#NaN
3.248554e+003,#NaN
3.249519e+003,#NaN
3.250483e+003,#NaN
3.251447e+003,#NaN
3.252411e+003,#NaN
3.253375e+003,#NaN
3.254340e+003,#NaN
3.255304e+003,#NaN
3.256268e+003,#NaN
3.257232e+003,#NaN
3.258197e+003,#NaN
3.259161e+003,#NaN
3.260125e+003,#NaN
3.261089e+003,#NaN
3.262054e+003,#NaN
3.263018e+003,#NaN
3.263982e+003,#NaN
3.264947e+003,#NaN
3.265911e+003,#NaN
3.266875e+003,#NaN
3.267839e+003,#NaN
3.268803e+003,#NaN
3.269768e+003,#NaN
3.270732e+003,#NaN
3.271696e+003,#NaN
3.272660e+003,#NaN
3.273625e+003,#NaN
3.274589e+003,#NaN
3.275553e+003,#NaN
3.276517e+003,#NaN
3.277482e+003,#NaN
3.278446e+003,#NaN
3.279410e+003,#NaN
3.280375e+003,#NaN
3.281339e+003,#NaN
3.282303e+003,#NaN
3.283267e+003,#NaN
3.284231e+003,#NaN
3.285196e+003,#NaN
3.286160e+003,#NaN
3.287124e+003,#NaN
3.288088e+003,#NaN
3.289053e+003,#NaN
3.290017e+003,#NaN
3.290981e+003,#NaN
3.291945e+003,#NaN
3.292910e+003,#NaN
3.293874e+003,#NaN
3.294838e+003,#NaN
3.295802e+003,#NaN
3.296767e+003,#NaN
3.297731e+003,#NaN
3.298695e+003,#NaN
3.299659e+003,#NaN
3.300624e+003,#NaN
3.301588e+003,#NaN
3.302552e+003,#NaN
3.303516e+003,#NaN
3.304481e+003,#NaN
3.305445e+003,#NaN
3.306409e+003,#NaN
3.307373e+003,#NaN
3.308338e+003,#NaN
3.309302e+003,#NaN
3.310266e+003,#NaN
3.311230e+003,#NaN
3.312195e+003,#NaN
3.313159e+003,#NaN
3.314123e+003,#NaN
3.315087e+003,#NaN
3.316052e+003,#NaN
3.317016e+003,#NaN
3.317980e+003,#NaN
3.318944e+003,#NaN
3.319909e+003,#NaN
3.320873e+003,#NaN
3.321837e+003,#NaN
3.322801e+003,#NaN
3.323766e+003,#NaN
3.324730e+003,#NaN
3.325694e+003,#NaN
3.326658e+003,#NaN
3.327623e+003,#NaN
3.328587e+003,#NaN
3.329551e+003,#NaN
3.330515e+003,#NaN
3.331479e+003,#NaN
3.332444e+003,#NaN
3.333408e+003,#NaN
3.334372e+003,#NaN
3.335337e+003,#NaN
3.336301e+003,#NaN
3.337265e+003,#NaN
3.338229e+003,#NaN
3.339194e+003,#NaN
3.340158e+003,#NaN
3.341122e+003,#NaN
3.342086e+003,#NaN
3.343051e+003,#NaN
3.344015e+003,#NaN
3.344979e+003,#NaN
3.345943e+003,#NaN
3.346907e+003,#NaN
3.347872e+003,#NaN
3.348836e+003,#NaN
3.349800e+003,#NaN
3.350765e+003,#NaN
3.351729e+003,#NaN
3.352693e+003,#NaN
3.353657e+003,#NaN
3.354622e+003,#NaN
3.355586e+003,#NaN
3.356550e+003,#NaN
3.357514e+003,#NaN
3.358479e+003,#NaN
3.359443e+003,#NaN
3.360407e+003,#NaN
3.361371e+003,#NaN
3.362335e+003,#NaN
3.363300e+003,#NaN
3.364264e+003,#NaN
3.365228e+003,#NaN
3.366193e+003,#NaN
3.367157e+003,#NaN
3.368121e+003,#NaN
3.369085e+003,#NaN
3.370050e+003,#NaN
3.371014e+003,#NaN
3.371978e+003,#NaN
3.372942e+003,#NaN
3.373906e+003,#NaN
3.374871e+003,#NaN
3.375835e+003,#NaN
3.376799e+003,#NaN
3.377763e+003,#NaN
3.378728e+003,#NaN
3.379692e+003,#NaN
3.380656e+003,#NaN
3.381621e+003,#NaN
3.382585e+003,#NaN
3.383549e+003,#NaN
3.384513e+003,#NaN
3.385478e+003,#NaN
3.386442e+003,#NaN
3.387406e+003,#NaN
3.388370e+003,#NaN
3.389334e+003,#NaN
3.390299e+003,#NaN
3.391263e+003,#NaN
3.392227e+003,#NaN
3.393191e+003,#NaN
3.394156e+003,#NaN
3.395120e+003,#NaN
3.396084e+003,#NaN
3.397049e+003,#NaN
3.398013e+003,#NaN
3.398977e+003,#NaN
3.399941e+003,#NaN
3.400906e+003,#NaN
3.401870e+003,#NaN
3.402834e+003,#NaN
3.403798e+003,#NaN
3.404762e+003,#NaN
3.405727e+003,#NaN
3.406691e+003,#NaN
3.407655e+003,#NaN
3.408619e+003,#NaN
3.409584e+003,#NaN
3.410548e+003,#NaN
3.411512e+003,#NaN
3.412477e+003,#NaN
3.413441e+003,#NaN
3.414405e+003,#NaN
3.415369e+003,#NaN
3.416333e+003,#NaN
3.417298e+003,#NaN
3.418262e+003,#NaN
3.419226e+003,#NaN
3.420190e+003,#NaN
3.421155e+003,#NaN
3.422119e+003,#NaN
3.423083e+003,#NaN
3.424047e+003,#NaN
3.425012e+003,#NaN
3.425976e+003,#NaN
3.426940e+003,#NaN
3.427905e+003,#NaN
3.428869e+003,#NaN
3.429833e+003,#NaN
3.430797e+003,#NaN
3.431761e+003,#NaN
3.432726e+003,#NaN
3.433690e+003,#NaN
3.434654e+003,#NaN
3.435618e+003,#NaN
3.436583e+003,#NaN
3.437547e+003,#NaN
3.438511e+003,#NaN
3.439475e+003,#NaN
3.440440e+003,#NaN
3.441404e+003,#NaN
3.442368e+003,#NaN
3.443333e+003,#NaN
3.444297e+003,#NaN
3.445261e+003,#NaN
3.446225e+003,#NaN
3.447189e+003,#NaN
3.448154e+003,#NaN
3.449118e+003,#NaN
3.450082e+003,#NaN
3.451046e+003,#NaN
3.452011e+003,#NaN
3.452975e+003,#NaN
3.453939e+003,#NaN
3.454904e+003,#NaN
3.455868e+003,#NaN
3.456832e+003,#NaN
3.457796e+003,#NaN
3.458760e+003,#NaN
3.459725e+003,#NaN
3.460689e+003,#NaN
3.461653e+003,#NaN
3.462617e+003,#NaN
3.463582e+003,#NaN
3.464546e+003,#NaN
3.465510e+003,#NaN
3.466474e+003,#NaN
3.467439e+003,#NaN
3.468403e+003,#NaN
3.469367e+003,#NaN
3.470332e+003,#NaN
3.471296e+003,#NaN
3.472260e+003,#NaN
3.473224e+003,#NaN
3.474188e+003,#NaN
3.475153e+003,#NaN
3.476117e+003,#NaN
3.477081e+003,#NaN
3.478045e+003,#NaN
3.479010e+003,#NaN
3.479974e+003,#NaN
3.480938e+003,#NaN
3.481902e+003,#NaN
3.482867e+003,#NaN
3.483831e+003,#NaN
3.484795e+003,#NaN
3.485760e+003,#NaN
3.486724e+003,#NaN
3.487688e+003,#NaN
3.488652e+003,#NaN
3.489616e+003,#NaN
3.490581e+003,#NaN
3.491545e+003,#NaN
3.492509e+003,#NaN
3.493473e+003,#NaN
3.494438e+003,#NaN
3.495402e+003,#NaN
3.496366e+003,#NaN
3.497330e+003,#NaN
3.498295e+003,#NaN
3.499259e+003,#NaN
3.500223e+003,#NaN
3.501188e+003,#NaN
3.502152e+003,#NaN
3.503116e+003,#NaN
3.504080e+003,#NaN
3.505044e+003,#NaN
3.506009e+003,#NaN
3.506973e+003,#NaN
3.507937e+003,#NaN
3.508901e+003,#NaN
3.509866e+003,#NaN
3.510830e+003,#NaN
3.511794e+003,#NaN
3.512758e+003,#NaN
3.513723e+003,#NaN
3.514687e+003,#NaN
3.515651e+003,#NaN
3.516615e+003,#NaN
3.517580e+003,#NaN
3.518544e+003,#NaN
3.519508e+003,#NaN
3.520472e+003,#NaN
3.521437e+003,#NaN
3.522401e+003,#NaN
3.523365e+003,#NaN
3.524329e+003,#NaN
3.525294e+003,#NaN
3.526258e+003,#NaN
3.527222e+003,#NaN
3.528186e+003,#NaN
3.529151e+003,#NaN
3.530115e+003,#NaN
3.531079e+003,#NaN
3.532043e+003,#NaN
3.533008e+003,#NaN
3.533972e+003,#NaN
3.534936e+003,#NaN
3.535900e+003,#NaN
3.536865e+003,#NaN
3.537829e+003,#NaN
3.538793e+003,#NaN
3.539757e+003,#NaN
3.540722e+003,#NaN
3.541686e+003,#NaN
3.542650e+003,#NaN
3.543614e+003,#NaN
3.544579e+003,#NaN
3.545543e+003,#NaN
3.546507e+003,#NaN
3.547471e+003,#NaN
3.548436e+003,#NaN
3.549400e+003,#NaN
3.550364e+003,#NaN
3.551328e+003,#NaN
3.552292e+003,#NaN
3.553257e+003,#NaN
3.554221e+003,#NaN
3.555185e+003,#NaN
3.556150e+003,#NaN
3.557114e+003,#NaN
3.558078e+003,#NaN
3.559042e+003,#NaN
3.560007e+003,#NaN
3.560971e+003,#NaN
3.561935e+003,#NaN
3.562899e+003,#NaN
3.563864e+003,#NaN
3.564828e+003,#NaN
3.565792e+003,#NaN
3.566756e+003,#NaN
3.567720e+003,#NaN
3.568685e+003,#NaN
3.569649e+003,#NaN
3.570613e+003,#NaN
3.571578e+003,#NaN
3.572542e+003,#NaN
3.573506e+003,#NaN
3.574470e+003,#NaN
3.575435e+003,#NaN
3.576399e+003,#NaN
3.577363e+003,#NaN
3.578327e+003,#NaN
3.579292e+003,#NaN
3.580256e+003,#NaN
3.581220e+003,#NaN
3.582184e+003,#NaN
3.583148e+003,#NaN
3.584113e+003,#NaN
3.585077e+003,#NaN
3.586041e+003,#NaN
3.587006e+003,#NaN
3.587970e+003,#NaN
3.588934e+003,#NaN
3.589898e+003,#NaN
3.590863e+003,#NaN
3.591827e+003,#NaN
3.592791e+003,#NaN
3.593755e+003,#NaN
3.594719e+003,#NaN
3.595684e+003,#NaN
3.596648e+003,#NaN
3.597612e+003,#NaN
3.598576e+003,#NaN
3.599541e+003,#NaN
3.600505e+003,#NaN
3.601469e+003,#NaN
3.602434e+003,#NaN
3.603398e+003,#NaN
3.604362e+003,#NaN
3.605326e+003,#NaN
3.606291e+003,#NaN
3.607255e+003,#NaN
3.608219e+003,#NaN
3.609183e+003,#NaN
3.610147e+003,#NaN
3.611112e+003,#NaN
3.612076e+003,#NaN
3.613040e+003,#NaN
3.614004e+003,#NaN
3.614969e+003,#NaN
3.615933e+003,#NaN
3.616897e+003,#NaN
3.617862e+003,#NaN
3.618826e+003,#NaN
3.619790e+003,#NaN
3.620754e+003,#NaN
3.621719e+003,#NaN
3.622683e+003,#NaN
3.623647e+003,#NaN
3.624611e+003,#NaN
3.625575e+003,#NaN
3.626540e+003,#NaN
3.627504e+003,#NaN
3.628468e+003,#NaN
3.629432e+003,#NaN
3.630397e+003,#NaN
3.631361e+003,#NaN
3.632325e+003,#NaN
3.633290e+003,#NaN
3.634254e+003,#NaN
3.635218e+003,#NaN
3.636182e+003,#NaN
3.637146e+003,#NaN
3.638111e+003,#NaN
3.639075e+003,#NaN
3.640039e+003,#NaN
3.641003e+003,#NaN
3.641968e+003,#NaN
3.642932e+003,#NaN
3.643896e+003,#NaN
3.644860e+003,#NaN
3.645825e+003,#NaN
3.646789e+003,#NaN
3.647753e+003,#NaN
3.648718e+003,#NaN
3.649682e+003,#NaN
3.650646e+003,#NaN
3.651610e+003,#NaN
3.652574e+003,#NaN
3.653539e+003,#NaN
3.654503e+003,#NaN
3.655467e+003,#NaN
3.656431e+003,#NaN
3.657396e+003,#NaN
3.658360e+003,#NaN
3.659324e+003,#NaN
3.660288e+003,#NaN
3.661253e+003,#NaN
3.662217e+003,#NaN
3.663181e+003,#NaN
3.664146e+003,#NaN
3.665110e+003,#NaN
3.666074e+003,#NaN
3.667038e+003,#NaN
3.668002e+003,#NaN
3.668967e+003,#NaN
3.669931e+003,#NaN
3.670895e+003,#NaN
3.671859e+003,#NaN
3.672824e+003,#NaN
3.673788e+003,#NaN
3.674752e+003,#NaN
3.675716e+003,#NaN
3.676681e+003,#NaN
3.677645e+003,#NaN
3.678609e+003,#NaN
3.679573e+003,#NaN
3.680538e+003,#NaN
3.681502e+003,#NaN
3.682466e+003,#NaN
3.683430e+003,#NaN
3.684395e+003,#NaN
3.685359e+003,#NaN
3.686323e+003,#NaN
3.687287e+003,#NaN
3.688252e+003,#NaN
3.689216e+003,#NaN
3.690180e+003,#NaN
3.691145e+003,#NaN
3.692109e+003,#NaN
3.693073e+003,#NaN
3.694037e+003,#NaN
3.695001e+003,#NaN
3.695966e+003,#NaN
3.696930e+003,#NaN
3.697894e+003,#NaN
3.698858e+003,#NaN
3.699823e+003,#NaN
3.700787e+003,#NaN
3.701751e+003,#NaN
3.702715e+003,#NaN
3.703680e+003,#NaN
3.704644e+003,#NaN
3.705608e+003,#NaN
3.706573e+003,#NaN
3.707537e+003,#NaN
3.708501e+003,#NaN
3.709465e+003,#NaN
3.710429e+003,#NaN
3.711394e+003,#NaN
3.712358e+003,#NaN
3.713322e+003,#NaN
3.714286e+003,#NaN
3.715251e+003,#NaN
3.716215e+003,#NaN
3.717179e+003,#NaN
3.718143e+003,#NaN
3.719108e+003,#NaN
3.720072e+003,#NaN
3.721036e+003,#NaN
3.722000e+003,#NaN
3.722965e+003,#NaN
3.723929e+003,#NaN
3.724893e+003,#NaN
3.725857e+003,#NaN
3.726822e+003,#NaN
3.727786e+003,#NaN
3.728750e+003,#NaN
3.729714e+003,#NaN
3.730679e+003,#NaN
3.731643e+003,#NaN
3.732607e+003,#NaN
3.733571e+003,#NaN
3.734536e+003,#NaN
3.735500e+003,#NaN
3.736464e+003,#NaN
3.737428e+003,#NaN
3.738393e+003,#NaN
3.739357e+003,#NaN
3.740321e+003,#NaN
3.741285e+003,#NaN
3.742250e+003,#NaN
3.743214e+003,#NaN
3.744178e+003,#NaN
3.745142e+003,#NaN
3.746107e+003,#NaN
3.747071e+003,#NaN
3.748035e+003,#NaN
3.748999e+003,#NaN
3.749964e+003,#NaN
3.750928e+003,#NaN
3.751892e+003,#NaN
3.752856e+003,#NaN
3.753821e+003,#NaN
3.754785e+003,#NaN
3.755749e+003,#NaN
3.756713e+003,#NaN
3.757677e+003,#NaN
3.758642e+003,#NaN
3.759606e+003,#NaN
3.760570e+003,#NaN
3.761535e+003,#NaN
3.762499e+003,#NaN
3.763463e+003,#NaN
3.764427e+003,#NaN
3.765392e+003,#NaN
3.766356e+003,#NaN
3.767320e+003,#NaN
3.768284e+003,#NaN
3.769249e+003,#NaN
3.770213e+003,#NaN
3.771177e+003,#NaN
3.772141e+003,#NaN
3.773105e+003,#NaN
3.774070e+003,#NaN
3.775034e+003,#NaN
3.775998e+003,#NaN
3.776963e+003,#NaN
3.777927e+003,#NaN
3.778891e+003,#NaN
3.779855e+003,#NaN
3.780820e+003,#NaN
3.781784e+003,#NaN
3.782748e+003,#NaN
3.783712e+003,#NaN
3.784677e+003,#NaN
3.785641e+003,#NaN
3.786605e+003,#NaN
3.787569e+003,#NaN
3.788533e+003,#NaN
3.789498e+003,#NaN
3.790462e+003,#NaN
3.791426e+003,#NaN
3.792391e+003,#NaN
3.793355e+003,#NaN
3.794319e+003,#NaN
3.795283e+003,#NaN
3.796248e+003,#NaN
3.797212e+003,#NaN
3.798176e+003,#NaN
3.799140e+003,#NaN
3.800104e+003,#NaN
3.801069e+003,#NaN
3.802033e+003,#NaN
3.802997e+003,#NaN
3.803961e+003,#NaN
3.804926e+003,#NaN
3.805890e+003,#NaN
3.806854e+003,#NaN
3.807819e+003,#NaN
3.808783e+003,#NaN
3.809747e+003,#NaN
3.810711e+003,#NaN
3.811676e+003,#NaN
3.812640e+003,#NaN
3.813604e+003,#NaN
3.814568e+003,#NaN
3.815532e+003,#NaN
3.816497e+003,#NaN
3.817461e+003,#NaN
3.818425e+003,#NaN
3.819389e+003,#NaN
3.820354e+003,#NaN
3.821318e+003,#NaN
3.822282e+003,#NaN
3.823247e+003,#NaN
3.824211e+003,#NaN
3.825175e+003,#NaN
3.826139e+003,#NaN
3.827104e+003,#NaN
3.828068e+003,#NaN
3.829032e+003,#NaN
3.829996e+003,#NaN
3.830960e+003,#NaN
3.831925e+003,#NaN
3.832889e+003,#NaN
3.833853e+003,#NaN
3.834817e+003,#NaN
3.835782e+003,#NaN
3.836746e+003,#NaN
3.837710e+003,#NaN
3.838675e+003,#NaN
3.839639e+003,#NaN
3.840603e+003,#NaN
3.841567e+003,#NaN
3.842531e+003,#NaN
3.843496e+003,#NaN
3.844460e+003,#NaN
3.845424e+003,#NaN
3.846388e+003,#NaN
3.847353e+003,#NaN
3.848317e+003,#NaN
3.849281e+003,#NaN
3.850245e+003,#NaN
3.851210e+003,#NaN
3.852174e+003,#NaN
3.853138e+003,#NaN
3.854103e+003,#NaN
3.855067e+003,#NaN
3.856031e+003,#NaN
3.856995e+003,#NaN
3.857959e+003,#NaN
3.858924e+003,#NaN
3.859888e+003,#NaN
3.860852e+003,#NaN
3.861816e+003,#NaN
3.862781e+003,#NaN
3.863745e+003,#NaN
3.864709e+003,#NaN
3.865673e+003,#NaN
3.866638e+003,#NaN
3.867602e+003,#NaN
3.868566e+003,#NaN
3.869531e+003,#NaN
3.870495e+003,#NaN
3.871459e+003,#NaN
3.872423e+003,#NaN
3.873387e+003,#NaN
3.874352e+003,#NaN
3.875316e+003,#NaN
3.876280e+003,#NaN
3.877244e+003,#NaN
3.878209e+003,#NaN
3.879173e+003,#NaN
3.880137e+003,#NaN
3.881101e+003,#NaN
3.882066e+003,#NaN
3.883030e+003,#NaN
3.883994e+003,#NaN
3.884958e+003,#NaN
3.885923e+003,#NaN
3.886887e+003,#NaN
3.887851e+003,#NaN
3.888815e+003,#NaN
3.889780e+003,#NaN
3.890744e+003,#NaN
3.891708e+003,#NaN
3.892672e+003,#NaN
3.893637e+003,#NaN
3.894601e+003,#NaN
3.895565e+003,#NaN
3.896529e+003,#NaN
3.897494e+003,#NaN
3.898458e+003,#NaN
3.899422e+003,#NaN
3.900386e+003,#NaN
3.901351e+003,#NaN
3.902315e+003,#NaN
3.903279e+003,#NaN
3.904243e+003,#NaN
3.905208e+003,#NaN
3.906172e+003,#NaN
3.907136e+003,#NaN
3.908100e+003,#NaN
3.909065e+003,#NaN
3.910029e+003,#NaN
3.910993e+003,#NaN
3.911957e+003,#NaN
3.912922e+003,#NaN
3.913886e+003,#NaN
3.914850e+003,#NaN
3.915814e+003,#NaN
3.916779e+003,#NaN
3.917743e+003,#NaN
3.918707e+003,#NaN
3.919671e+003,#NaN
3.920636e+003,#NaN
3.921600e+003,#NaN
3.922564e+003,#NaN
3.923528e+003,#NaN
3.924493e+003,#NaN
3.925457e+003,#NaN
3.926421e+003,#NaN
3.927385e+003,#NaN
3.928350e+003,#NaN
3.929314e+003,#NaN
3.930278e+003,#NaN
3.931242e+003,#NaN
3.932207e+003,#NaN
3.933171e+003,#NaN
3.934135e+003,#NaN
3.935099e+003,#NaN
3.936064e+003,#NaN
3.937028e+003,#NaN
3.937992e+003,#NaN
3.938956e+003,#NaN
3.939921e+003,#NaN
3.940885e+003,#NaN
3.941849e+003,#NaN
3.942813e+003,#NaN
3.943778e+003,#NaN
3.944742e+003,#NaN
3.945706e+003,#NaN
3.946670e+003,#NaN
3.947635e+003,#NaN
3.948599e+003,#NaN
3.949563e+003,#NaN
3.950527e+003,#NaN
3.951492e+003,#NaN
3.952456e+003,#NaN
3.953420e+003,#NaN
3.954384e+003,#NaN
3.955349e+003,#NaN
3.956313e+003,#NaN
3.957277e+003,#NaN
3.958241e+003,#NaN
3.959206e+003,#NaN
3.960170e+003,#NaN
3.961134e+003,#NaN
3.962098e+003,#NaN
3.963063e+003,#NaN
3.964027e+003,#NaN
3.964991e+003,#NaN
3.965955e+003,#NaN
3.966920e+003,#NaN
3.967884e+003,#NaN
3.968848e+003,#NaN
3.969812e+003,#NaN
3.970777e+003,#NaN
3.971741e+003,#NaN
3.972705e+003,#NaN
3.973669e+003,#NaN
3.974634e+003,#NaN
3.975598e+003,#NaN
3.976562e+003,#NaN
3.977526e+003,#NaN
3.978490e+003,#NaN
3.979455e+003,#NaN
3.980419e+003,#NaN
3.981383e+003,#NaN
3.982348e+003,#NaN
3.983312e+003,#NaN
3.984276e+003,#NaN
3.985240e+003,#NaN
3.986205e+003,#NaN
3.987169e+003,#NaN
3.988133e+003,#NaN
3.989097e+003,#NaN
3.990062e+003,#NaN
3.991026e+003,#NaN
3.991990e+003,#NaN
3.992954e+003,#NaN
3.993918e+003,#NaN
3.994883e+003,#NaN
3.995847e+003,#NaN
3.996811e+003,#NaN
3.997776e+003,#NaN
3.998740e+003,#NaN
3.999704e+003,#NaN
4.000668e+003,0.000000e+000
